time_s,ECG1,ECG2,NIBP
0.0,-0.21490861564590336,-0.11150410188494944,91.67873829182061
0.01,0.038499960541590224,0.08991792588351717,90.84789614976765
0.02,-0.2241961236587414,-0.11840580441601962,90.5892593397071
0.03,0.03385620653517121,0.08120513829110233,90.76778740328872
0.04,-0.2287858805255509,-0.13230710596796239,91.23012931153858
0.05,0.025162667058037932,0.08756841012825924,91.7016265051003
0.06,-0.23693944860658894,-0.14155832425429052,92.01519502703214
0.07,0.024568698522333173,0.07777876114801785,92.25094362381299
0.08,-0.2375334171422937,-0.14679578645871966,92.44320461536243
0.09,0.019924944515914155,0.07195392000477423,92.6560649988636
0.1,-0.2490888050187317,-0.1519843004182476,92.89181359564446
0.11,0.013553282041990388,0.06847859461678853,93.03829816063453
0.12,-0.25837631303156977,-0.16358503445983363,92.94674530751574
0.13,0.009503496571276129,0.07371605682121767,92.63317678558391
0.14,-0.2543265275608555,-0.16706035984781933,92.12734727210264
0.15,0.015875159045199896,0.07484186645394543,91.64440597190107
0.16,-0.25492049609656026,-0.16529822303137587,91.12713235177993
0.17,0.004859742564857111,0.07082811037204646,90.62359165962664
0.18,-0.25837631303156977,-0.1618228976433902,90.16124975137679
0.19,0.00890952803557137,0.0823798961687313,89.68975255781505
0.2,-0.25837631303156977,-0.17224887380734727,89.20681125761348
0.21,0.004265774029152353,0.0760166243315744,88.73531406405175
0.22,-0.2879667455375886,-0.18326222891011884,88.30959329704942
0.23,-0.005021733983685682,0.08756841012825924,87.97313656183789
0.24,-0.2774913004533411,-0.15722176262267673,87.55657108014744
0.25,0.032668269463761695,0.13157288229444428,87.062185673306
0.26,-0.19924944515914156,-0.13578243135594809,86.64790901294351
0.27,0.04314371454800924,0.10611979494581668,86.32060756304386
0.28,-0.252004650557646,-0.1704867369909038,86.04137136103158
0.29,0.003671805493447595,0.06794016392287525,85.8147780495626
0.3,-0.2983881934822266,-0.21796653454507456,85.61336177270128
0.31,-0.014255244856914193,0.06735278498406076,85.46687720771122
0.32,-0.2856448685343791,-0.19946409797241832,85.24257271757021
0.33,-0.010799427921904692,0.0661780271064318,84.96104769422995
0.34,-0.29082859393689336,-0.20871531625874645,84.74818731072878
0.35,-0.01603715046402847,0.07024073143323198,84.59254746042686
0.36,-0.2995221334140266,-0.2202671020554313,84.45750700207665
0.37,-0.0038337969122761656,0.08179251722991682,84.2881342238069
0.38,-0.29606631647901716,-0.21277802058554662,84.10960616022528
0.39,-0.08499149774538993,0.20739371364641385,83.9951650938268
0.4,-0.06706444739502813,-0.0640243043307787,83.83952524352488
0.41,1.1674181583578973,-0.2810608222227303,83.60377664674401
0.42,0.6867356215539193,-0.9378973205520265,83.41151565519456
0.43,0.33478226557904545,-0.4610435187244683,83.1986552716934
0.44,-0.24736089655122698,-0.42629026484461136,82.95146256827269
0.45,-0.01603715046402847,0.07542924539275991,82.76149039805121
0.46,-0.3233348719818265,-0.18962550074727574,82.61500583306116
0.47,-0.038607954820809275,0.13274764017207324,82.50285358799064
0.48,-0.34649964487431206,-0.1675987905417326,82.43418894815156
0.49,-0.04152380035972354,0.15590016001034415,82.29914848980135
0.5,-0.3470936134100168,-0.1681861694805471,82.07484399966035
0.51,-0.04730149429794255,0.16515137829667226,81.7841636910082
0.52,-0.3424498594035978,-0.15428486792860432,81.44770695579669
0.53,-0.04789546283364731,0.17498997552181486,81.15473782581658
0.54,-0.3337563199264645,-0.1386703778051193,80.93043333567556
0.55,-0.03342422941829502,0.19349241209447107,80.72672823748627
0.56,-0.32970653445575027,-0.12653121306961998,80.55964428054449
0.57,-0.036286077817599766,0.22300820376989888,80.3788273956349
0.58,-0.3337563199264645,-0.09990336784336339,80.18885522541343
0.59,-0.029914415343675997,0.26353735054809824,80.04237066042337
0.6,-0.31869111797540745,-0.05359832816682161,80.09959119362262
0.61,-0.010799427921904692,0.31561828312298246,80.89610101575602
0.62,-0.29493237654721716,0.012383905960005359,83.32225162340374
0.63,0.016469127580904654,0.39951557488365114,88.53389778719043
0.64,-0.27403548351833157,0.08468046367908803,96.3181791236149
0.65,0.058802885034771046,0.4851750034607633,104.07728342543169
0.66,-0.2241961236587414,0.1645639993578578,110.07628412603991
0.67,0.10167661388473268,0.5540451840367615,113.90548220773297
0.68,-0.177218612198456,0.21316960654475628,115.78002687534004
0.69,0.15097600234822758,0.5766103249362179,115.83724740853928
0.7,-0.14703421115673238,0.18247905699169953,114.00619034616363
0.71,0.14924809388072285,0.4845876245219488,110.37840854133188
0.72,-0.1882340286787988,0.032061100410290554,106.34779418277749
0.73,0.07154620998261858,0.3162056620617969,103.39292584836879
0.74,-0.29374443947580764,-0.13519505241713362,101.53898057271346
0.75,-0.0165771218601237,0.18482857274695746,100.44950162059995
0.76,-0.3592429698221596,-0.24400700083251667,99.60721537190715
0.77,-0.05658900231078059,0.12520961045728737,98.72144151798292
0.78,-0.3784119543835404,-0.2781728757735591,97.85626705601044
0.79,-0.06355463332040912,0.10323184849664546,97.23828529745866
0.8,-0.3749021403089214,-0.2920252290806007,97.06891251918891
0.81,-0.0589108793139901,0.10494503706818771,97.40536925440044
0.82,-0.3876994623963784,-0.28913728263142946,98.00275162100048
0.83,-0.05140527690826634,0.1147836342933303,98.67566509142354
0.84,-0.3737682003771214,-0.2880114729987017,99.18149460490481
0.85,-0.06009881638539961,0.11654577110977375,99.25931453005578
0.86,-0.38710549386067367,-0.2874240940598872,98.84503786969329
0.87,-0.06819838732682813,0.11943371755894497,97.9798634077208
0.88,-0.394665093406007,-0.2978500702238443,96.67752407210611
0.89,-0.07052026433003764,0.11943371755894497,95.21725606486154
0.9,-0.40103675587993076,-0.30651390957135793,93.62194759926676
0.91,-0.07921380380717091,0.10783298351735891,92.26238773045284
0.92,-0.39579903333780697,-0.31287718140851484,91.48647730027116
0.93,-0.06819838732682813,0.1084203624561734,91.30794923668954
0.94,-0.3992548502728165,-0.320953641817214,91.60091836666963
0.95,-0.07516401833645665,0.09740700735340184,92.15023548538234
0.96,-0.39579903333780697,-0.32560372508282864,92.59884446566437
0.97,-0.06933232725862812,0.11130830890534461,92.8139936704935
0.98,-0.400442787344226,-0.3284916715319999,92.90325770228432
0.99,-0.07343610986895191,0.09339325127150287,92.98107762743528
1.0,-0.40389860427923546,-0.3348549433691568,93.17333861898473
1.01,-0.07921380380717091,0.1055324160070022,93.4090872157656
1.02,-0.40276466434743546,-0.34586829847192835,93.5212394608361
1.03,-0.07397608126504714,0.10959512033380236,93.44113071435716
1.04,-0.4149140207595783,-0.3412182152063137,93.02685405399467
1.05,-0.07980777234287567,0.11130830890534461,92.40887229544289
1.06,-0.410864235288864,-0.3557068956970709,91.8366669634505
1.07,-0.08445152634929469,0.11537101323214478,91.33083744996924
1.08,-0.420151743301702,-0.35105681243145626,90.89138375499907
1.09,-0.0902292202875137,0.1055324160070022,90.41988656143735
1.1,-0.42592943723992105,-0.3672586814937558,89.93694526123578
1.11,-0.08326358927788517,0.118258959681316,89.49978038759359
1.12,-0.4294392513145401,-0.3591822210850566,89.01683908739201
1.13,-0.0867734033525042,0.11307044572178807,88.44463375539962
1.14,-0.4288452827788353,-0.3666713025549413,87.87013960207926
1.15,-0.09427900575822797,0.10724560457854443,87.35515480328611
1.16,-0.4328950682495496,-0.37420933226972714,86.9729216415152
1.17,-0.08909528035571371,0.11419625535451582,86.65706429825539
1.18,-0.4364048823241686,-0.3724961436981849,86.4007163095228
1.19,-0.09427900575822797,0.1118956878441591,86.18556710469366
1.2,-0.4445044532655971,-0.38233474092332753,85.9955949344722
1.21,-0.09487297429393272,0.11130830890534461,85.73695812441163
1.22,-0.4474202988045114,-0.39736185210799807,85.44398899443154
1.23,-0.10297254523536124,0.09975652310865978,85.1533086857794
1.24,-0.4566538096777399,-0.38115998304569854,84.95189240891807
1.25,-0.1215475612610373,0.1344608287436155,84.87178366243914
1.26,-0.46248550075556843,-0.38115998304569854,84.78251963064832
1.27,-0.09427900575822797,0.1442994259687581,84.62459095901843
1.28,-0.3795458943153404,-0.354532137819442,84.38884236223757
1.29,-0.06587651032361862,0.15183745568354398,84.0409415203862
1.3,-0.4277113428470353,-0.38693587594404094,83.69304067853481
1.31,-0.102432573839266,0.11307044572178807,83.48018029503365
1.32,-0.46826319469378747,-0.41415110010911205,83.32225162340374
1.33,-0.1192256842578278,0.09916914416984529,83.1986552716934
1.34,-0.47927861117413023,-0.4274650227222403,83.0407266000635
1.35,-0.12910716080637058,0.09916914416984529,82.76149039805121
1.36,-0.4862442421837588,-0.43960418745773966,82.43418894815156
1.37,-0.11863171572212304,0.10034390204747426,82.13206453285959
1.38,-0.484516333716254,-0.43324091562058276,81.85053950951932
1.39,-0.11458193025140878,0.11365782466060255,81.61479091273846
1.4,-0.47409488577161596,-0.42976559023259703,81.50263866766795
1.41,-0.18996193714630352,0.21086903903439955,81.39048642259745
1.42,-0.33780610539717876,-0.24806970515931684,81.23255775096754
1.43,0.9273468756539559,-0.23534316148500303,81.04258558074608
1.44,0.5759874882147867,-1.0727007870099503,80.85032458919663
1.45,0.2518426591388174,-0.48879717358345265,80.7175729521744
1.46,-0.419017803369902,-0.6786184673103332,80.63746420569547
1.47,-0.11630983871891354,0.11365782466060255,80.50242374734526
1.48,-0.5111909206833586,-0.41415110010911205,80.36738328899506
1.49,-0.14881611676384665,0.16921408262347243,80.22318754533298
1.5,-0.5251221827026157,-0.39506128459764134,80.09959119362262
1.51,-0.1563217191695704,0.1957929796048278,80.05381476706323
1.52,-0.5210184000922918,-0.38057260410688404,79.93021841535287
1.53,-0.14590027122493238,0.20509314613605714,79.6715816052923
1.54,-0.5204784286961966,-0.37132138582055596,79.33512487008078
1.55,-0.14762817969243713,0.21605755299392748,78.9872240282294
1.56,-0.5192904916247871,-0.35800746320742766,78.70569900488915
1.57,-0.14185048575421813,0.2386226938933839,78.51572683466767
1.58,-0.5065471666769396,-0.33891764769595695,78.30286645116651
1.59,-0.1336969176731801,0.26006202516011256,78.08771724633738
1.6,-0.49380384172909203,-0.31346456034732934,77.9435215026753
1.61,-0.11630983871891354,0.2941789518562538,77.81992515096493
1.62,-0.4775507027066255,-0.27063484605877325,77.95267678798717
1.63,-0.08385755781358993,0.37058716214703785,78.86362767651906
1.64,-0.4485542387363114,-0.20871531625874645,81.50263866766795
1.65,-0.06296066478470436,0.4417579102333927,87.19722613165621
1.66,-0.4218796517692068,-0.12653121306961998,95.57660101335276
1.67,-0.02181484440224748,0.5164039837077333,103.84153482865084
1.68,-0.3720402919096166,-0.0507103817176504,110.04195180612035
1.69,0.04195577747659973,0.6061261166116457,113.95125863429236
1.7,-0.337212136861474,0.0001957929796048278,115.79147098197988
1.71,0.0738680869858281,0.6229153646127596,115.66787463026952
1.72,-0.2856448685343791,-0.00788066742909432,113.5575813658816
1.73,0.09762682841401842,0.5551709936694893,109.52467818599924
1.74,-0.30648776442365516,-0.12824440164116221,105.17820648418505
1.75,0.030346392460552183,0.40010295382246563,102.10203061939397
1.76,-0.3952050648021022,-0.2920252290806007,100.20230891717924
1.77,-0.06009881638539961,0.260649404098927,99.02356593327491
1.78,-0.478738639778035,-0.4228149394566257,98.08057154615146
1.79,-0.11863171572212304,0.1795911105425283,97.01398080731764
1.8,-0.5088690436801491,-0.46158194941838154,95.92450185520413
1.81,-0.12851319227066582,0.1576133485818864,95.20581195822169
1.82,-0.5256621540987109,-0.4795459552971245,95.0478832865918
1.83,-0.12095359272533256,0.16921408262347243,95.39578412844317
1.84,-0.5158346746897776,-0.4870839850119104,96.02520999363479
1.85,-0.12851319227066582,0.16226343184750106,96.72101167733754
1.86,-0.5210184000922918,-0.48762241570582365,97.2726176173782
1.87,-0.1267852838031611,0.16862670368465796,97.57474203267019
1.88,-0.5181565516929871,-0.48184652280748125,97.49692210751921
1.89,-0.13429088620888485,0.1703398922562002,96.86749624232759
1.9,-0.5204784286961966,-0.48879717358345265,95.68875325842326
1.91,-0.13547882328029437,0.16338924148022882,94.12777711274803
1.92,-0.5181565516929871,-0.48184652280748125,92.42031640208273
1.93,-0.12791922373496106,0.16167605290868656,91.04931242662897
1.94,-0.5233402770955013,-0.4934472568490673,90.37639895620593
1.95,-0.13196900920567534,0.16280186254141432,90.35351074292623
1.96,-0.5192904916247871,-0.5072996101561088,90.74718801133699
1.97,-0.1348848547445896,0.15472540213271518,91.24157341817842
1.98,-0.5204784286961966,-0.5078869890949234,91.56658604675009
1.99,-0.12446340679995158,0.16338924148022882,91.76800232361141
2.0,-0.5169686146215776,-0.5160123977485237,91.96026331516086
2.01,-0.13083506927387534,0.14953688817318725,92.2280554105333
2.02,-0.5152407061540728,-0.51018755660528,92.5439127537931
2.03,-0.1203596241896278,0.15702596964307192,92.86892538236478
2.04,-0.5222063371637014,-0.5252636160348518,93.00396584071498
2.05,-0.1348848547445896,0.14606156278520155,92.84603716908508
2.06,-0.5210184000922918,-0.5322142668108232,92.42031640208273
2.07,-0.12446340679995158,0.1541380231939007,91.92593099524132
2.08,-0.5135127976865681,-0.5177255863200659,91.3857691618405
2.09,-0.11458193025140878,0.15472540213271518,90.87078436304735
2.1,-0.5013094441348158,-0.53451483432118,90.4542188813569
2.11,-0.10821026777748502,0.1639766204190433,90.06054161294612
2.12,-0.49380384172909203,-0.5235014792184084,89.57760031274455
2.13,-0.09951672830035174,0.16862670368465796,89.0397273006717
2.14,-0.4926159046576825,-0.5269768046063941,88.52245368055058
2.15,-0.09832879122894223,0.15991391609224312,88.0852888069084
2.16,-0.484516333716254,-0.529326320361652,87.69161153849764
2.17,-0.11749777579032304,0.1836538148693285,87.29793427008687
2.18,-0.5024973812062253,-0.5136628819932658,86.87221350308454
2.19,-0.103566513771066,0.1957929796048278,86.43275980811438
2.2,-0.46826319469378747,-0.4905593103998961,86.07341485962316
2.21,-0.024730689941161746,0.2091069022179561,85.84911036948215
2.22,-0.4601636237523589,-0.49516044542060955,85.71406991113194
2.23,-0.07343610986895191,0.2021562514419847,85.5355418475503
2.24,-0.479872579709835,-0.5304521299943797,85.32039264272117
2.25,-0.09832879122894223,0.1703398922562002,85.16475279241925
2.26,-0.4851103022519588,-0.533340076443551,84.96104769422995
2.27,-0.0867734033525042,0.17440259658300036,84.69325559885752
2.28,-0.48683821071946354,-0.5426402429747803,84.45750700207665
2.29,-0.0902292202875137,0.17264045976655693,84.27669011716705
2.3,-0.48278842524874926,-0.543766052607508,84.10960616022528
2.31,-0.08909528035571371,0.17264045976655693,83.92878927531568
2.32,-0.4821944567130445,-0.5443534315463225,83.73881710509421
2.33,-0.08326358927788517,0.18830389813494314,83.53511200690492
2.34,-0.5488809241308059,-0.40024979855716925,83.3336957300436
2.35,0.16312535876037038,0.3676992156978666,83.152878845134
2.36,0.7116823000535192,-0.8504757551584708,82.97435078155237
2.37,0.8548827142979755,-0.5397033482807079,82.73860218477151
2.38,-0.16965901265312272,-1.0755887334591216,82.55778529986192
2.39,-0.026458598408666496,-0.021781968981037094,82.43418894815156
2.4,-0.4705850716969969,-0.5408781061583369,82.27854909784963
2.41,-0.09546694282963748,0.21953287838191318,82.13206453285959
2.42,-0.5001755042030158,-0.495747824359424,82.04280050106877
2.43,-0.09892275976464698,0.24616072360816976,81.97413586122968
2.44,-0.4978536271998063,-0.4807207131747535,81.85053950951932
2.45,-0.10065066823215173,0.2617752137316548,81.73838726444882
2.46,-0.49202193612197775,-0.46970735807198194,81.5598592008672
2.47,-0.08445152634929469,0.28203978712075445,81.17762603909628
2.48,-0.4879721506512635,-0.45521867758122464,80.79539287732536
2.49,-0.07921380380717091,0.297066898305425,80.4909796407054
2.5,-0.4764167627748255,-0.43901680851892516,80.27811925720424
2.51,-0.06879235586253289,0.32139417602132486,80.16596701213373
2.52,-0.46712925476198747,-0.4158642886806543,80.07670298034292
2.53,-0.04908339990505683,0.3491478308803092,79.98743894855211
2.54,-0.4497421758077209,-0.3736219533309127,79.80662206364251
2.55,-0.03747401488900928,0.3972150073732944,79.72880213849155
2.56,-0.41669592636669256,-0.3111150445920714,80.09959119362262
2.57,-0.01371527346081896,0.4660851879492926,81.63767912601816
2.58,-0.38591755678926415,-0.23823110793417424,85.52409774091046
2.59,0.02575663559374269,0.5551709936694893,92.47524811395401
2.6,-0.34417776787110255,-0.15315905829587656,100.47238983387965
2.61,0.07095224144691382,0.6414178011854159,107.1443040049109
2.62,-0.3001161019497314,-0.07097495510675009,111.74941251678565
2.63,0.1353168318614658,0.6952119223318424,114.28771536950389
2.64,-0.23807338853838894,-0.046647677390850226,115.08422519163729
2.65,0.15097600234822758,0.6703462139220292,113.83910638922185
2.66,-0.2502767420901412,-0.15257167935706206,110.63704535139244
2.67,0.10804827635865644,0.5256552019940615,106.43705821456831
2.68,-0.33667216546537876,-0.30651390957135793,103.0999567183887
2.69,0.01700909897699989,0.36999978320822335,100.92099881416168
2.7,-0.41550798929528304,-0.4471422171725255,99.55228366003588
2.71,-0.04676152290184732,0.2716138109567974,98.54062463307334
2.72,-0.45147008427522567,-0.5032858540742099,97.49692210751921
2.73,-0.06647047885932338,0.23402155887267045,96.47381897391682
2.74,-0.4642134092230732,-0.5298647510555653,95.54226869343321
2.75,-0.06474257039181863,0.22707090809669905,95.12570321174276
2.76,-0.4485542387363114,-0.522963048524495,95.19436785158184
2.77,-0.05831691077828534,0.23979745177101286,95.63153272522403
2.78,-0.4445044532655971,-0.5171382073812515,96.26095859041565
2.79,-0.06063878778149485,0.2392100728321984,96.80112042381647
2.8,-0.44158860772668285,-0.5096491259113668,97.06891251918891
2.81,-0.057776939382190105,0.25193661650651217,96.92242795419885
2.82,-0.4433165161941876,-0.5078869890949234,96.19458277190454
2.83,-0.061232756317199606,0.24674810254698426,94.98150746808068
2.84,-0.45147008427522567,-0.512537072360538,93.28549086405523
2.85,-0.061232756317199606,0.24904867005734097,91.62151775862137
2.86,-0.4462323617331019,-0.5131244512993525,90.55492701978756
2.87,-0.05831691077828534,0.24439858679172632,90.15209446606491
2.88,-0.44682633026880664,-0.5275641835452085,90.37639895620593
2.89,-0.06063878778149485,0.23803531495456942,90.96004839483817
2.9,-0.4433165161941876,-0.5304521299943797,91.5436978334704
2.91,-0.062420693388609116,0.2415106403425551,91.88015456868193
2.92,-0.4398606992591781,-0.5206135327692372,91.99230681375244
2.93,-0.04848943136935207,0.247873912179712,92.11590316546278
2.94,-0.44045466779488285,-0.5269768046063941,92.3402076556038
2.95,-0.05486109384327584,0.24268539822018406,92.61028857230421
2.96,-0.43230109971384484,-0.5206135327692372,92.83459306244524
2.97,-0.059504847849694856,0.23803531495456942,92.82314895580538
2.98,-0.43813279079167333,-0.522963048524495,92.44320461536243
2.99,-0.057776939382190105,0.2455733446693553,91.84582224876237
3.0,-0.4277113428470353,-0.5252636160348518,91.24157341817842
3.01,-0.04497961729473304,0.23749688426065613,90.7242997980573
3.02,-0.4277113428470353,-0.511362314482909,90.29629020972699
3.03,-0.05140527690826634,0.24733548148579873,89.994165794435
3.04,-0.4242015287724163,-0.5171382073812515,89.55471209946485
3.05,-0.04325170882722829,0.23979745177101286,88.99395087411231
3.06,-0.4218796517692068,-0.5200261538304227,88.43318964875976
3.07,-0.04962337130115206,0.24616072360816976,87.91591602863865
3.08,-0.4131861122920735,-0.5200261538304227,87.46730704835662
3.09,-0.04384567736293305,0.24733548148579873,87.0850738865857
3.1,-0.410864235288864,-0.5154250188097093,86.73717304473433
3.11,-0.04325170882722829,0.247873912179712,86.46709212803393
3.12,-0.41027026675315925,-0.5154250188097093,86.11919128618256
3.13,-0.04789546283364731,0.232259422056227,85.80333394292275
3.14,-0.406220481282445,-0.5154250188097093,85.45543310107138
3.15,-0.04676152290184732,0.2542371840168689,85.14186457913955
3.16,-0.4305731912463401,-0.5038242847681231,84.96104769422995
3.17,-0.05313318537577109,0.26236259267046924,84.82829605720772
3.18,-0.39693297326960697,-0.47200792558233867,84.69325559885752
3.19,0.028618483993047433,0.29594108867269725,84.47810639402837
3.2,-0.37031238344211187,-0.47489587203150985,84.2652460105272
3.21,-0.00734361098689519,0.26353735054809824,84.09816205358543
3.22,-0.3928831877988927,-0.5148376398708947,83.89445695539614
3.23,-0.04730149429794255,0.2392100728321984,83.70448478517467
3.24,-0.40157672727602595,-0.5177255863200659,83.50306850831335
3.25,-0.03574610642150453,0.2328468009950415,83.2879193034842
3.26,-0.39693297326960697,-0.5275641835452085,83.08650302662289
3.27,-0.03920192335651403,0.23979745177101286,82.82786621656233
3.28,-0.3905613107956832,-0.5131244512993525,82.55778529986192
3.29,-0.030508383879380756,0.23402155887267045,82.32203670308105
3.3,-0.3841896483217594,-0.5044116637069377,82.09773221294004
3.31,-0.032830260882590265,0.24268539822018406,81.97413586122968
3.32,-0.45843571528485416,-0.41933961406863995,81.85053950951932
3.33,0.058802885034771046,0.46373567219403466,81.6720114459377
3.34,0.5330597622252156,-0.8169462074011441,81.42481874251699
3.35,1.1279462493033356,-0.30186382630574327,81.16618193245642
3.36,0.06863036444370432,-1.1542975112602623,80.98536504754684
3.37,0.08488350346617088,-0.02119459004222261,80.88465690911617
3.38,-0.35638112142285483,-0.5096491259113668,80.8297251972449
3.39,-0.0421177688954283,0.28145240818194,80.78394877068551
3.4,-0.4021706958117307,-0.45003016362169673,80.67179652561501
3.41,-0.06063878778149485,0.30808025340819656,80.54820017390465
3.42,-0.405086541350645,-0.4315277270490405,80.4017156089146
3.43,-0.06706444739502813,0.32717006891966727,80.18885522541343
3.44,-0.40276466434743546,-0.4112631536599408,79.99888305519195
3.45,-0.06760441879112337,0.3300580153688385,79.76084563708312
3.46,-0.3952050648021022,-0.40083717749598374,79.49305354171068
3.47,-0.06009881638539961,0.3520847255743816,79.14515269985931
3.48,-0.38823943379247366,-0.37538409014735613,78.81785124995966
3.49,-0.040929831824018784,0.3723003507185801,78.61643497309834
3.5,-0.3708523548382071,-0.35164419137027075,78.43561808818875
3.51,-0.03342422941829502,0.4076409835372515,78.30286645116651
3.52,-0.3517373674164358,-0.32501634614401415,78.23420181132742
3.53,-0.01544318192832371,0.4475338031317352,78.30286645116651
3.54,-0.336078196929674,-0.25790830238445944,78.95289170830986
3.55,0.00718161956806662,0.5065653864825908,81.13184961253688
3.56,-0.3088096414268647,-0.190163931441189,86.25423174453276
3.57,0.026890575525542682,0.584686785344917,94.2948610696898
3.58,-0.267069852508703,-0.0993159889045489,102.43848735460548
3.59,0.08023974945975186,0.6749962971876439,108.8517647155762
3.6,-0.2119927701069891,-0.014243939266251223,112.93959960732982
3.61,0.12953913792324678,0.7340278805384994,115.02929347976603
3.62,-0.16560922718240845,0.011796527021190875,115.43212603348867
3.63,0.16026351036106562,0.7091132238837852,113.84826167453373
3.64,-0.14185048575421813,-0.04263392130895126,110.31203272282076
3.65,0.15675369628644661,0.5974133290192308,105.97700512764642
3.66,-0.20734901610057008,-0.19887671903360385,102.62845952482697
3.67,0.05993682496657104,0.43309407088587915,100.59598618559
3.68,-0.28737277700188385,-0.3551195167582564,99.47217491355694
3.69,-0.014849213392618951,0.31214295773499673,98.6642209847837
3.7,-0.34072195093609303,-0.43324091562058276,97.81049062945105
3.71,-0.05718297084648535,0.2670126759360839,96.77823221053677
3.72,-0.35751506135465483,-0.4540928679484969,95.90161364192444
3.73,-0.04676152290184732,0.2548245629556834,95.46444876828225
3.74,-0.3517373674164358,-0.4598687608468393,95.60864451194433
3.75,-0.04271173743113306,0.25081080687378443,96.23807037713595
3.76,-0.3470936134100168,-0.4512049214993257,97.05746841254906
3.77,-0.040929831824018784,0.25081080687378443,97.65256195782115
3.78,-0.330300502991455,-0.43960418745773966,97.83337884273074
3.79,-0.0421177688954283,0.25369875332295566,97.58618613931003
3.8,-0.336078196929674,-0.43671624100856843,96.9567602741184
3.81,-0.0455735858304378,0.26236259267046924,95.9565453537957
3.82,-0.34304382793930255,-0.43612886206975393,94.56494198639021
3.83,-0.05718297084648535,0.24386015609781303,92.91470180892416
3.84,-0.3436377964750073,-0.44307951284572533,91.44298969503974
3.85,-0.04384567736293305,0.2484612911185265,90.55492701978756
3.86,-0.34417776787110255,-0.4482680268052533,90.37639895620593
3.87,-0.05081130837256158,0.2351473685053982,90.62359165962664
3.88,-0.3233348719818265,-0.4401915663965541,91.04931242662897
3.89,-0.04908339990505683,0.2420980192813696,91.4086573751202
3.9,-0.33667216546537876,-0.45233073113205347,91.60091836666963
3.91,-0.05313318537577109,0.23749688426065613,91.74511411033173
3.92,-0.3227409034461217,-0.44484164966216877,91.92593099524132
3.93,-0.05658900231078059,0.2328468009950415,92.21661130389344
3.94,-0.32506278044933123,-0.43842942958011066,92.55535686043294
3.95,-0.04848943136935207,0.23632212638302716,92.77966135057396
3.96,-0.3238748433779217,-0.446554838233711,92.6789532121433
3.97,-0.06009881638539961,0.2351473685053982,92.30816415701223
3.98,-0.31982505790720744,-0.4338282945593972,91.80233464353095
3.99,-0.05486109384327584,0.22242082483108438,91.26217281013014
4.0,-0.3244688119136265,-0.43612886206975393,90.8364520431278
4.01,-0.04962337130115206,0.23690950532184166,90.44277477471704
4.02,-0.30940360996256944,-0.42976559023259703,90.04909750630628
4.03,-0.04848943136935207,0.23690950532184166,89.6119326326641
4.04,-0.30416588742044565,-0.4228149394566257,89.07177079926328
4.05,-0.04962337130115206,0.232259422056227,88.51100957391074
4.06,-0.3099975784982742,-0.4280524016610548,88.02806827370917
4.07,-0.05081130837256158,0.22819671772942682,87.60234750670682
4.08,-0.3047598559561504,-0.4280524016610548,87.17433791837651
4.09,-0.05140527690826634,0.23113361242349922,86.76921654332591
4.1,-0.30303194748864565,-0.4234023183954401,86.38927220288296
4.11,-0.05604903091468535,0.23167204311741252,86.00703904111204
4.12,-0.3216069635143217,-0.41238896329266855,85.67058230590051
4.13,-0.06063878778149485,0.24963604899615546,85.45543310107138
4.14,-0.2914225624725981,-0.37650989978008387,85.23112861093036
4.15,0.013553282041990388,0.27685127316122654,85.04115644070889
4.16,-0.2433111110805127,-0.37420933226972714,84.87178366243914
4.17,-0.0032398283765714075,0.2617752137316548,84.63603506565828
4.18,-0.27695132905724584,-0.4054872607615984,84.43461878879695
4.19,-0.04676152290184732,0.2125822276059418,84.22175840529579
4.2,-0.2867788084661791,-0.4147384790479265,84.07527384030574
4.21,-0.04676152290184732,0.21953287838191318,83.94023338195554
4.22,-0.28391696006687434,-0.4176264254970977,83.78230471032563
4.23,-0.0589108793139901,0.2125822276059418,83.62666486002371
4.24,-0.28213505445976006,-0.41297634223148305,83.36802804996314
4.25,-0.05372715391147584,0.20044306287044247,83.09794713326274
4.26,-0.27927320606045536,-0.41238896329266855,82.86219853648187
4.27,-0.04271173743113306,0.21493174336119972,82.69282575821212
4.28,-0.3424498594035978,-0.366132871861028,82.54634119322208
4.29,-0.061232756317199606,0.4799375412563342,82.3792572362803
4.3,0.4507141243206923,-0.4974610129309663,82.23277267129025
4.31,1.2468479507235062,-0.17283625274616174,82.08628810630019
4.32,0.22284619516850332,-1.1583602155870625,81.97413586122968
4.33,0.0773239039208376,-0.13118129633523462,81.83909540287948
4.34,-0.2554604674926555,-0.46334408623482504,81.6720114459377
4.35,-0.061232756317199606,0.22765828703551355,81.5369709875875
4.36,-0.2867788084661791,-0.3557068956970709,81.45686224110857
4.37,-0.07284214133324715,0.2681384855688117,81.40193052923729
4.38,-0.2833229915311696,-0.32619110402164314,81.31266649744649
4.39,-0.07165420426183763,0.28262716605956895,81.15473782581658
4.4,-0.27403548351833157,-0.3163525067965005,80.91898922903572
4.41,-0.06647047885932338,0.29476633079506825,80.64890831233531
4.42,-0.2647479755054935,-0.2978500702238443,80.39027150227474
4.43,-0.05831691077828534,0.3103808209185533,80.15452290549388
4.44,-0.252004650557646,-0.2752359810794867,79.94166252199271
4.45,-0.055455062378980596,0.32428212247049604,79.74024624513139
4.46,-0.24736089655122698,-0.2619220584663584,79.50449764835054
4.47,-0.04271173743113306,0.3398966125939811,79.26874905156967
4.48,-0.2334296345319699,-0.21914129242270353,79.08793216666007
4.49,-0.03169632095079027,0.38908959871969406,79.0101122415091
4.5,-0.2038931991655606,-0.1710741159297183,79.14515269985931
4.51,-0.02354275286975223,0.4307445551306212,79.8295102769222
4.52,-0.18359027467237976,-0.1027913142925346,82.05424460770861
4.53,0.02575663559374269,0.5221798766060758,87.11940620650525
4.54,-0.1435783942217229,-0.007293288490279836,94.90139872160174
4.55,0.06803639590799956,0.6003502237133033,102.68568005802621
4.56,-0.07980777234287567,0.062115322779631624,108.52446326567654
4.57,0.11560787590398973,0.6639829420848723,112.26668613690677
4.58,-0.03396420081439026,0.11130830890534461,114.15267491115368
4.59,0.16776911276678938,0.6599202377580722,114.23049483630464
4.6,-0.010205459386199933,0.05810156669773265,112.35595016869758
4.61,0.1410945257996848,0.5627090233842751,108.49241976708497
4.62,-0.07629795826825665,-0.07963879445426371,104.26954441698113
4.63,0.04314371454800924,0.3850268943928939,101.21396794414177
4.64,-0.178352552130256,-0.22897988964784613,99.32797916989486
4.65,-0.036880046353304524,0.2681384855688117,98.18127968458211
4.66,-0.22824590912945567,-0.31924045324567174,97.26117351073836
4.67,-0.08617943481679945,0.20680633470759938,96.24951448377581
4.68,-0.25373255902515074,-0.3528189492478997,95.1600355316623
4.69,-0.0867734033525042,0.19060446564529987,94.26281757109824
4.7,-0.25081671348623646,-0.3469941081046561,93.85769619604763
4.71,-0.08094171227467567,0.19868092605399904,94.05911247290894
4.72,-0.24563298808372222,-0.3469941081046561,94.62216251958945
4.73,-0.08731337474859943,0.20391838825842817,95.34085241657189
4.74,-0.23521154013908419,-0.32619110402164314,95.76657318357424
4.75,-0.07980777234287567,0.20739371364641385,95.72079675701484
4.76,-0.2433111110805127,-0.3342675644303423,95.14859142502245
4.77,-0.09487297429393272,0.20509314613605714,94.11633300610818
4.78,-0.24736089655122698,-0.3244289672051997,92.84603716908508
4.79,-0.09195712875501845,0.20103044180925694,91.5436978334704
4.8,-0.24676692801552222,-0.3279042925931854,90.47710709463658
4.81,-0.0902292202875137,0.19349241209447107,90.0170540077147
4.82,-0.24039526554159843,-0.33314175479761454,90.03765339966643
4.83,-0.09195712875501845,0.19119184458411437,90.39699834815765
4.84,-0.23980129700589367,-0.3360297012467857,90.87078436304735
4.85,-0.10183860530356124,0.17905267984861503,91.20724109825888
4.86,-0.23807338853838894,-0.33255437585880004,91.37432505520066
4.87,-0.09600691422573271,0.1738152176441859,91.48647730027116
4.88,-0.23980129700589367,-0.3366170801856002,91.67873829182061
4.89,-0.103566513771066,0.1738152176441859,91.92593099524132
4.9,-0.24158320261300795,-0.3400924055735859,92.13879137874248
4.91,-0.1001106968360565,0.17557735446062933,92.20745601858157
4.92,-0.23807338853838894,-0.32619110402164314,91.96941860047274
4.93,-0.10297254523536124,0.1795911105425283,91.44298969503974
4.94,-0.22824590912945567,-0.31924045324567174,90.80211972320826
4.95,-0.10183860530356124,0.1732278387053714,90.26424671113541
4.96,-0.22705797205804615,-0.32907905047081437,89.82479301616526
4.97,-0.10416048230677076,0.167451945807029,89.39907224916293
4.98,-0.22937984906125566,-0.3238905365112864,88.94817444755292
4.99,-0.11053214478069452,0.16862670368465796,88.53389778719043
5.0,-0.2241961236587414,-0.3238905365112864,88.10588819886013
5.01,-0.11285402178390404,0.1605012950310576,87.68016743185778
5.02,-0.22360215512303663,-0.32212839969484297,87.25215784352748
5.03,-0.10648235930998026,0.16975251331738572,86.76006125801402
5.04,-0.22592403212624615,-0.31405193928614383,86.29771934976418
5.05,-0.10993817624498976,0.15820072752070088,85.86055447612199
5.06,-0.2195523696523224,-0.3163525067965005,85.52409774091046
5.07,-0.12095359272533256,0.1541380231939007,85.26546093084991
5.08,-0.22705797205804615,-0.320953641817214,85.07548876062843
5.09,-0.102432573839266,0.15820072752070088,84.91756008899853
5.1,-0.21026486163948435,-0.3105766138981581,84.70469970549736
5.11,-0.12559734673175157,0.1668645668682145,84.41173057551725
5.12,-0.2119927701069891,-0.2908994194478729,84.16453787209655
5.13,-0.08909528035571371,0.20739371364641385,83.96312159523522
5.14,-0.13893464021530386,-0.2544329769964737,83.79374881696548
5.15,-0.05194524830436157,0.21145641797321404,83.67015246525513
5.16,-0.16560922718240845,-0.2619220584663584,83.51222379362522
5.17,-0.08153568081038043,0.18482857274695746,83.29936341012406
5.18,-0.19924944515914156,-0.29956325879538653,83.08650302662289
5.19,-0.10761629924178026,0.15125007674472948,82.86219853648187
5.2,-0.1951996596884273,-0.30015063773420103,82.66078225962055
5.21,-0.109344207709285,0.14953688817318725,82.4914094813508
5.22,-0.19573963108452255,-0.2926126080194152,82.32203670308105
5.23,-0.10821026777748502,0.15590016001034415,82.10917631957989
5.24,-0.19692756815593207,-0.2926126080194152,81.83909540287948
5.25,-0.103566513771066,0.15355064425508622,81.5369709875875
5.26,-0.18882799721450355,-0.28972466157024396,81.32411060408633
5.27,-0.17316882672774173,0.20509314613605714,81.18907014573612
5.28,-0.17316882672774173,-0.031620566206179694,80.98536504754684
5.29,0.6728043595346623,-0.06519906220840765,80.77250466404567
5.3,1.1053754449465547,-0.7127353940064745,80.57108838718435
5.31,0.422311628886083,-0.5779319275485505,80.36738328899506
5.32,-0.04497961729473304,-0.609748286734335,80.2437869372847
5.33,-0.09082318882321846,0.11595839217095927,80.17741111877358
5.34,-0.19924944515914156,-0.2550203559352882,80.13163469221419
5.35,-0.1435783942217229,0.18482857274695746,80.11103530026246
5.36,-0.21604255557770335,-0.223742427443417,80.03092655378353
5.37,-0.13661276321209434,0.21086903903439955,79.8295102769222
5.38,-0.21490861564590336,-0.20235204442158955,79.60520578678118
5.39,-0.1383406716795991,0.21953287838191318,79.36945719000033
5.4,-0.2062150761687701,-0.19828934009478938,79.17719619845089
5.41,-0.13137504066997058,0.22242082483108438,79.02155634814895
5.42,-0.20097735362664632,-0.17861214564450417,78.80640714331982
5.43,-0.1215475612610373,0.24097220964864183,78.57065854653895
5.44,-0.1951996596884273,-0.16069708801066243,78.26853413124697
5.45,-0.11803774718641828,0.26407578124201153,77.96412089462702
5.46,-0.18472421460417976,-0.12594383413080548,77.76270461776569
5.47,-0.102432573839266,0.297066898305425,77.66199647933503
5.48,-0.16269338164349417,-0.09182690743466425,77.72837229784615
5.49,-0.07397608126504714,0.3619233227995242,78.29142234452667
5.5,-0.1192256842578278,-0.008468046367908802,80.15452290549388
5.51,-0.05486109384327584,0.4243812832934643,84.63603506565828
5.52,-0.09195712875501845,0.0696533524944175,92.37453997552335
5.53,-0.0131213049251142,0.5141034161973767,100.69669432402065
5.54,-0.04848943136935207,0.16515137829667226,107.40294081497146
5.55,0.038499960541590224,0.5980007079580454,111.90734118841554
5.56,0.006587651032361862,0.23402155887267045,114.354091188015
5.57,0.08601744339797088,0.6304044460826443,115.10711340491699
5.58,0.05529307096015202,0.23402155887267045,113.93981452765252
5.59,0.11387996743648497,0.5766103249362179,110.74919759646295
5.6,0.05297119395694251,0.12985969372290204,106.43705821456831
5.61,0.061124762037980555,0.4290313665590789,102.92142865480707
5.62,-0.04271173743113306,-0.044934488819307984,100.55020975903061
5.63,-0.036286077817599766,0.2681384855688117,99.19293871154466
5.64,-0.12095359272533256,-0.1583475722554045,98.19272379122197
5.65,-0.09660088276143747,0.18076586842015727,97.16962065761957
5.66,-0.15572775063386565,-0.21620439772863112,96.18313866526469
5.67,-0.11458193025140878,0.14659999347911482,95.35000770188377
5.68,-0.15923756470848469,-0.23881848687298873,94.99066275339256
5.69,-0.1215475612610373,0.13157288229444428,95.10510381979103
5.7,-0.15572775063386565,-0.2196797231166168,95.59720040530449
5.71,-0.12791922373496106,0.13563558662124447,96.28384680369535
5.72,-0.16037150464028468,-0.2260429949537737,96.84460802904789
5.73,-0.1169038072546183,0.13676139625397224,97.12613305238816
5.74,-0.1482221482281419,-0.21507858809590336,97.1146889457483
5.75,-0.12095359272533256,0.13911091200923015,96.73245578397739
5.76,-0.1516779651631514,-0.21277802058554662,95.94739006848383
5.77,-0.12446340679995158,0.1408241005807724,94.65420601818103
5.78,-0.15227193369885617,-0.20984112589147422,92.98107762743528
5.79,-0.1226815011928373,0.13157288229444428,91.42010148176004
5.8,-0.16269338164349417,-0.22085448099424576,90.26424671113541
5.81,-0.13429088620888485,0.1280975569064586,89.769861304294
5.82,-0.16215341024739896,-0.21914129242270353,89.8591253360848
5.83,-0.14125651721851337,0.1246222315184729,90.28484610308715
5.84,-0.17025298118882748,-0.2202671020554313,90.76778740328872
5.85,-0.13661276321209434,0.12232166400811617,91.02642421334927
5.86,-0.16096547317598944,-0.21855391348388906,91.06075653326883
5.87,-0.13952860875100861,0.1118956878441591,91.09508885318837
5.88,-0.16674316711420845,-0.22085448099424576,91.27361691677
5.89,-0.14471233415352286,0.10264446955783098,91.60091836666963
5.9,-0.16447528725060845,-0.2266303738925882,91.89159867532177
5.91,-0.15113799376705617,0.09916914416984529,91.91448688860147
5.92,-0.16215341024739896,-0.2266303738925882,91.61007365198152
5.93,-0.15113799376705617,0.0951064398430451,91.07220063990867
5.94,-0.15804962763707517,-0.22261661781068923,90.5892593397071
5.95,-0.15113799376705617,0.0887431680058882,90.18413796465649
5.96,-0.16096547317598944,-0.2231550485046025,89.769861304294
5.97,-0.16096547317598944,0.0922184933938739,89.35329582260353
5.98,-0.17257485819203697,-0.2231550485046025,88.82457809584257
5.99,-0.15923756470848469,0.08468046367908803,88.24092865721033
6.0,-0.15983153324418944,-0.2196797231166168,87.71449975177732
6.01,-0.16037150464028468,0.08296727510754578,87.20867023829607
6.02,-0.16560922718240845,-0.22550456425986043,86.7921047566056
6.03,-0.16447528725060845,0.08179251722991682,86.38927220288296
6.04,-0.17430276665954172,-0.21620439772863112,85.96126261455265
6.05,-0.1928777826852178,0.09740700735340184,85.56758534614188
6.06,-0.17954048920166552,-0.20176466548277505,85.1761968990591
6.07,-0.17257485819203697,0.1084203624561734,84.82829605720772
6.08,-0.10761629924178026,-0.16647298090900484,84.54677103386746
6.09,-0.11803774718641828,0.11018249927261685,84.25380190388736
6.1,-0.1267852838031611,-0.1907513103800035,84.0180533071065
6.11,-0.16037150464028468,0.08526784261790252,83.83952524352488
6.12,-0.16215341024739896,-0.22144185993306026,83.67015246525513
6.13,-0.17662464366275124,0.062115322779631624,83.50306850831335
6.14,-0.16447528725060845,-0.2202671020554313,83.32225162340374
6.15,-0.17662464366275124,0.06446483853488956,83.14372355982212
6.16,-0.15923756470848469,-0.21914129242270353,82.95146256827269
6.17,-0.16965901265312272,0.06387745959607508,82.73860218477151
6.18,-0.1650152586467037,-0.22202923887187473,82.50285358799064
6.19,-0.17549070373095124,0.059227376330460414,82.20988445801055
6.2,-0.1563217191695704,-0.21507858809590336,81.93064825599826
6.21,-0.21490861564590336,0.08644260049553149,81.69261083788943
6.22,-0.19924944515914156,0.010621769143561909,81.5140827743078
6.23,0.37592808596150235,0.053451483432117995,81.37904231595759
6.24,1.1558087733418496,-0.496922582237053,81.20051425237597
6.25,0.4611895694049399,-0.7393632392327311,81.00825326082654
6.26,0.034450175070875964,-0.6033850148971781,80.79539287732536
6.27,-0.1563217191695704,-0.049584572084922646,80.5367560672648
6.28,-0.1493560881599419,-0.17689895707296194,80.33533979040348
6.29,-0.20734901610057008,0.09569381878185959,80.22318754533298
6.3,-0.1719808896563322,-0.1386703778051193,80.20029933205328
6.31,-0.21258673864269387,0.11595839217095927,80.17741111877358
6.32,-0.17257485819203697,-0.11669261584447738,80.06525887370307
6.33,-0.19752153669163683,0.13969829094804465,79.86384259684175
6.34,-0.15983153324418944,-0.11032934400732047,79.5594293602218
6.35,-0.19692756815593207,0.14141147951958688,79.22297262501027
6.36,-0.15983153324418944,-0.08717682416904958,78.93000349503018
6.37,-0.18996193714630352,0.16167605290868656,78.69425489824931
6.38,-0.14762817969243713,-0.06519906220840765,78.55921443989911
6.39,-0.18996193714630352,0.17846530090980056,78.45850630146845
6.4,-0.14125651721851337,-0.03509589159416539,78.32346584311824
6.41,-0.17257485819203697,0.20969428115677058,78.18842538476804
6.42,-0.12964713220246582,-0.00675485779636656,78.0556737477458
6.43,-0.1662031957181132,0.2484612911185265,78.08771724633738
6.44,-0.10761629924178026,0.048801400166503334,78.65076729301788
6.45,-0.13952860875100861,0.31791885063333913,80.62602009905561
6.46,-0.07284214133324715,0.13563558662124447,85.50120952763076
6.47,-0.102432573839266,0.3913901662300508,93.29693497069508
6.48,-0.02354275286975223,0.2125822276059418,101.17963562422223
6.49,-0.038607954820809275,0.48052492019514864,107.29078856990095
6.5,0.02575663559374269,0.28840305895791135,111.16576307815342
6.51,0.00718161956806662,0.5262425809328759,113.10897238559957
6.52,0.09006722886868514,0.3057796858978398,113.48891672604252
6.53,0.05529307096015202,0.4782243526847919,111.83867654857646
6.54,0.08137368939155186,0.21434436442238525,108.21089474374472
6.55,-0.018359027467237977,0.33412071969563867,104.03379582020027
6.56,-0.01371527346081896,0.04243812832934643,100.94388702744136
6.57,-0.12446340679995158,0.16921408262347243,99.03501003991477
6.58,-0.09832879122894223,-0.07562503837236474,97.9111987678817
6.59,-0.18996193714630352,0.08066670759718905,97.0254249139575
6.6,-0.14590027122493238,-0.1450336496422762,96.01376588699495
6.61,-0.21604255557770335,0.041312318696618666,94.82357879645078
6.62,-0.1406625486828086,-0.14101989356037722,93.74554395097711
6.63,-0.21258673864269387,0.035487477553375044,93.1824939042966
6.64,-0.14125651721851337,-0.1485089750302619,93.1824939042966
6.65,-0.20443317056165583,0.03494904685946176,93.64483581254645
6.66,-0.15113799376705617,-0.14679578645871966,94.35208160288904
6.67,-0.2085369531719796,0.03896280294136074,94.94717514816114
6.68,-0.13661276321209434,-0.13984513568274826,95.20581195822169
6.69,-0.21372067857449387,0.02858577502230486,94.90139872160174
6.7,-0.13429088620888485,-0.13695718923357705,93.98129254775797
6.71,-0.21372067857449387,0.025110449634319167,92.72244081737472
6.72,-0.13196900920567534,-0.13754456817239152,91.3857691618405
6.73,-0.2062150761687701,0.029124205716218137,90.12920625278521
6.74,-0.12851319227066582,-0.14332046107073396,89.26403179081272
6.75,-0.2166365241134081,0.005433255184033972,88.88179862904181
6.76,-0.13196900920567534,-0.14620840751990516,89.00539498075216
6.77,-0.22128027811982715,0.005433255184033972,89.52266860087327
6.78,-0.1406625486828086,-0.15428486792860432,90.06054161294612
6.79,-0.22705797205804615,-0.01076861387826553,90.38784306284577
6.8,-0.14239045715031337,-0.15893495119421897,90.52059469986801
6.81,-0.22824590912945567,-0.010230183184352253,90.64419105157836
6.82,-0.14703421115673238,-0.16241027658220467,90.93716018155847
6.83,-0.21723049264911287,-0.013705508572337946,91.3628809485608
6.84,-0.13547882328029437,-0.1554596258062333,91.71307061174015
6.85,-0.2253300635905414,-0.011943371755894496,91.82522285681065
6.86,-0.1336969176731801,-0.16010970907184793,91.50936551355086
6.87,-0.22360215512303663,-0.01541869714388019,90.79067561656842
6.88,-0.1273252551992563,-0.1485089750302619,90.03765339966643
6.89,-0.22473609505483663,-0.016006076082694675,89.46544806767405
6.9,-0.12095359272533256,-0.14679578645871966,89.19536715097364
6.91,-0.2206863095841224,-0.0183066435930514,89.11754722582268
6.92,-0.11458193025140878,-0.1513969214794331,88.82457809584257
6.93,-0.21895840111661763,-0.02119459004222261,88.22948455057048
6.94,-0.1226815011928373,-0.15428486792860432,87.36659890992595
6.95,-0.21604255557770335,-0.024669915430208304,86.56780026646459
6.96,-0.11749777579032304,-0.1450336496422762,86.1077471795427
6.97,-0.21895840111661763,-0.028145240818193997,85.93837440127295
6.98,-0.11630983871891354,-0.15027111184670536,85.88344268940169
6.99,-0.21604255557770335,-0.029319998695822965,85.65913819926067
7.0,-0.1169038072546183,-0.1490963539690764,85.19908511233879
7.01,-0.21836443258091287,-0.02873261975700848,84.70469970549736
7.02,-0.11630983871891354,-0.14043251462156275,84.34535475700615
7.03,-0.23402360306767467,-0.017131885715422433,84.10960616022528
7.04,-0.11458193025140878,-0.12188112980400531,83.98600980851492
7.05,-0.19055590568200828,0.011209148082376393,83.87156874211645
7.06,-0.01776505893153322,-0.09471485388383545,83.73881710509421
7.07,-0.17894652066596076,-0.00675485779636656,83.58088843346431
7.08,-0.08040174087858043,-0.11610523690566289,83.34513983668344
7.09,-0.21026486163948435,-0.031620566206179694,83.07505891998304
7.1,-0.1070223307060755,-0.14101989356037722,82.82786621656233
7.11,-0.22360215512303663,-0.04723505632966471,82.63789404634085
7.12,-0.1047544508424755,-0.14043251462156275,82.47996537471096
7.13,-0.22009234104841763,-0.047822435268479194,82.28999320448948
7.14,-0.1001106968360565,-0.13406924278440585,81.99702407450938
7.15,-0.2166365241134081,-0.05188513959527937,81.69261083788943
7.16,-0.09141715735892322,-0.13406924278440585,81.54841509422734
7.17,-0.21490861564590336,-0.049584572084922646,81.45686224110857
7.18,-0.10416048230677076,-0.12941915951879118,81.31266649744649
7.19,-0.2856448685343791,0.09858176523103081,80.99680915418668
7.2,0.20545911621423676,0.0007831719184193112,80.68324063225485
7.21,1.0230298070420314,-0.38346055055605527,80.5367560672648
7.22,0.8311239728697851,-0.8626638681388713,80.48182435539353
7.23,0.10167661388473268,-0.5518914612611084,80.32389568376364
7.24,-0.040929831824018784,-0.29667531234621536,80.13163469221419
7.25,-0.2154485870419986,-0.0443471098804935,79.98743894855211
7.26,-0.1047544508424755,-0.08600206629142061,79.97599484191225
7.27,-0.24563298808372222,-0.006167478857552076,80.01948244714369
7.28,-0.11112611331639928,-0.058248411432436274,79.89588609543333
7.29,-0.2485488336226365,0.011209148082376393,79.694469818572
7.3,-0.11226005324819928,-0.043759730941679016,79.45872122179114
7.31,-0.24736089655122698,0.01815979885834778,79.21152851837043
7.32,-0.103566513771066,-0.031033187267365207,78.93000349503018
7.33,-0.23575151153517943,0.03724961436981849,78.63932318637804
7.34,-0.09082318882321846,-0.017131885715422433,78.46995040810829
7.35,-0.22473609505483663,0.0598147552692749,78.35779816303778
7.36,-0.08266962074218041,0.01815979885834778,78.14493777953662
7.37,-0.21372067857449387,0.07371605682121767,77.82908043627681
7.38,-0.07052026433003764,0.043025507268160915,77.53840012762468
7.39,-0.1951996596884273,0.12002109649775945,77.42624788255418
7.4,-0.05194524830436157,0.08815578906707372,77.7169281912063
7.41,-0.17370879812383697,0.1645639993578578,78.69425489824931
7.42,-0.022408812937952237,0.1576133485818864,81.31266649744649
7.43,-0.1551877792377704,0.23690950532184166,87.01640924674662
7.44,0.005993682496657104,0.2415106403425551,95.38434002180331
7.45,-0.1169038072546183,0.3289322057361107,103.43870227492819
7.46,0.058802885034771046,0.3329459618180097,109.28892958921837
7.47,-0.05604903091468535,0.40299090027163686,112.86177968217885
7.48,0.11269203036507545,0.3844884636989806,114.62417210471541
7.49,-0.00734361098689519,0.42555604117109325,114.6699485312748
7.5,0.15156997088393234,0.3468472633699525,112.7381833304685
7.51,-0.004427765447980923,0.33818342402243884,108.9181405340873
7.52,0.124301415381123,0.2351473685053982,104.75248571718271
7.53,-0.07921380380717091,0.17557735446062933,101.80906148941386
7.54,0.010097465106980888,0.062115322779631624,100.05811317351716
7.55,-0.16965901265312272,0.03147372147147607,98.82214965641359
7.56,-0.04730149429794255,-0.031033187267365207,97.64340667250927
7.57,-0.2195523696523224,-0.047822435268479194,96.38455494212602
7.58,-0.06706444739502813,-0.07445028049473577,95.1600355316623
7.59,-0.22937984906125566,-0.07156233404556457,94.35208160288904
7.6,-0.07052026433003764,-0.08252674090343493,94.10488889946834
7.61,-0.2264640035223414,-0.06867438759639335,94.40701331476032
7.62,-0.06706444739502813,-0.07733822694390699,94.99066275339256
7.63,-0.2241961236587414,-0.06519906220840765,95.59720040530449
7.64,-0.06706444739502813,-0.0732755226171068,95.99087767371525
7.65,-0.22937984906125566,-0.059961600003978516,96.08014170550607
7.66,-0.061826724852904365,-0.060548978942793,95.8443931087252
7.67,-0.23170172606446515,-0.05766103249362179,95.22870017150139
7.68,-0.07052026433003764,-0.061136357881607484,94.21704114453884
7.69,-0.22997381759696042,-0.06749962971876439,92.76821724393412
7.7,-0.06819838732682813,-0.06980019722912112,91.20724109825888
7.71,-0.23288966313587467,-0.06921281829030664,90.03765339966643
7.72,-0.06819838732682813,-0.07097495510675009,89.12899133246252
7.73,-0.23170172606446515,-0.08022617339307819,88.68038235218049
7.74,-0.06992629579433288,-0.0732755226171068,88.89324273568165
7.75,-0.23634548007088418,-0.08776420310786406,89.55471209946485
7.76,-0.06474257039181863,-0.07445028049473577,90.28484610308715
7.77,-0.24039526554159843,-0.08947739167940631,90.7014115847776
7.78,-0.06474257039181863,-0.0732755226171068,90.93716018155847
7.79,-0.23807338853838894,-0.10514083004779254,91.11797706646806
7.8,-0.05831691077828534,-0.0640243043307787,91.18435288497918
7.81,-0.22937984906125566,-0.07733822694390699,91.29650513004968
7.82,-0.05658900231078059,-0.0669122507799499,91.35372566324892
7.83,-0.23056778613266518,-0.08776420310786406,91.20724109825888
7.84,-0.061826724852904365,-0.07156233404556457,90.93716018155847
7.85,-0.22824590912945567,-0.08889001274059183,90.47710709463658
7.86,-0.05194524830436157,-0.06632487184113542,89.95983347451546
7.87,-0.22241421805162714,-0.0837014987810639,89.4311157477545
7.88,-0.05658900231078059,-0.06172373682042197,88.89324273568165
7.89,-0.22937984906125566,-0.08717682416904958,88.41030143548008
7.9,-0.05313318537577109,-0.05766103249362179,87.95024834855819
7.91,-0.23056778613266518,-0.08081355233189268,87.45586294171677
7.92,-0.05426712530757108,-0.05301094922800713,86.99580985479489
7.93,-0.2287858805255509,-0.08835158204667855,86.59068847974427
7.94,-0.0455735858304378,-0.05766103249362179,86.17412299805382
7.95,-0.21723049264911287,-0.08311411984224941,85.70262580449209
7.96,-0.06063878778149485,-0.043759730941679016,85.23112861093036
7.97,-0.22705797205804615,-0.07156233404556457,84.88322776907899
7.98,-0.032830260882590265,-0.014243939266251223,84.581103353787
7.99,-0.17489673519524648,-0.02990737763463745,84.35451004231803
8.0,0.026890575525542682,0.0036711183675905215,84.16453787209655
8.01,-0.18764006014309403,-0.06172373682042197,83.94023338195554
8.02,-0.024730689941161746,-0.02873261975700848,83.70448478517467
8.03,-0.21372067857449387,-0.10396607217016357,83.45729208175395
8.04,-0.04038986042792355,-0.05766103249362179,83.26503109020452
8.05,-0.22360215512303663,-0.10220393535372012,83.10939123990258
8.06,-0.036880046353304524,-0.05129776065646489,82.88508674976157
8.07,-0.2253300635905414,-0.10455345110897805,82.71571397149182
8.08,-0.03396420081439026,-0.05359832816682161,82.52574180127034
8.09,-0.22705797205804615,-0.10626663968052029,82.29914848980135
8.1,-0.032830260882590265,-0.05188513959527937,82.12062042621973
8.11,-0.2264640035223414,-0.10856720719087702,81.87342772279902
8.12,-0.06009881638539961,-0.03739645910452211,81.649123232658
8.13,-0.2786792375247506,0.0922184933938739,81.49119456102811
8.14,0.45535787832711133,-0.06284954645314973,81.3561541026779
8.15,1.0984098139369263,-0.4378909988861974,81.15473782581658
8.16,0.7012068549692716,-0.8273232353201999,80.86176869583647
8.17,0.02575663559374269,-0.5275641835452085,80.62602009905561
8.18,-0.002699856980476173,-0.14043251462156275,80.52531196062495
8.19,-0.22997381759696042,-0.09872860996573442,80.54820017390465
8.2,-0.06009881638539961,-0.005580099918737593,80.48182435539353
8.21,-0.26010422149907453,-0.058248411432436274,80.25523104392454
8.22,-0.06355463332040912,0.0239356917566902,79.99888305519195
8.23,-0.256648404564065,-0.0379838380433366,79.78373385036282
8.24,-0.04038986042792355,0.04243812832934643,79.7173580318517
8.25,-0.24390507961621746,-0.02119459004222261,79.61664989342104
8.26,-0.032236292346885506,0.05863999739164593,79.38090129664018
8.27,-0.23521154013908419,-0.010230183184352253,79.04215574010068
8.28,-0.032830260882590265,0.07136654106595974,78.717143111529
8.29,-0.23521154013908419,0.0007831719184193112,78.41501869623703
8.3,-0.02354275286975223,0.09628119772067407,78.24564591796728
8.31,-0.22009234104841763,0.03607485649218953,78.17927009945616
8.32,-0.011933367853704685,0.12868493584527307,78.08771724633738
8.33,-0.21318070717839863,0.0696533524944175,78.11060545961708
8.34,0.01063743650307612,0.18541595168577193,78.33490994975809
8.35,-0.18882799721450355,0.13563558662124447,79.47016532843098
8.36,0.02343475859053318,0.25022342793496993,82.79353389664278
8.37,-0.16560922718240845,0.2091069022179561,89.37618403588323
8.38,0.05648100803156154,0.342246128349239,97.63196256586942
8.39,-0.1267852838031611,0.2976542772442395,104.97679020732373
8.4,0.10983018196577071,0.43309407088587915,110.15410405119087
8.41,-0.07861983527146615,0.36422389030988095,113.25316812926165
8.42,0.15794163335785613,0.4788117316236064,114.58983978479587
8.43,-0.027592538340466488,0.37753781292300925,113.91692631437282
8.44,0.19622560534100825,0.4353946383962358,111.46788749344539
8.45,-0.022408812937952237,0.2837529756922967,107.58146887855308
8.46,0.14692621687751334,0.2976542772442395,103.88731125521022
8.47,-0.10993817624498976,0.11419625535451582,101.30323197593259
8.48,0.058802885034771046,0.1373487751927867,99.81092047009643
8.49,-0.18764006014309403,-0.022956726858666062,98.73288562462278
8.5,0.0008099570941428519,0.041312318696618666,97.63196256586942
8.51,-0.22997381759696042,-0.08252674090343493,96.43948665399728
8.52,-0.02294878433404747,0.008321201633205181,95.32940830993205
8.53,-0.24039526554159843,-0.09990336784336339,94.74575887129981
8.54,-0.02294878433404747,0.004258497306405005,94.74575887129981
8.55,-0.2375334171422937,-0.11493047902803392,95.17147963830215
8.56,-0.024136721405456987,0.005433255184033972,95.64297683186388
8.57,-0.23980129700589367,-0.10455345110897805,96.07098642019419
8.58,-0.01139339645760945,0.011209148082376393,96.2724026970555
8.59,-0.24271714254480795,-0.1056792607417058,96.23807037713595
8.6,-0.032236292346885506,0.008908580572019665,95.94739006848383
8.61,-0.2490888050187317,-0.10802877649696374,95.3179642032922
8.62,-0.028780475411876005,0.012383905960005359,94.08200068618864
8.63,-0.2490888050187317,-0.10220393535372012,92.44320461536243
8.64,-0.02527066133725698,0.01350971559273312,90.8593402564075
8.65,-0.2433111110805127,-0.11204253257886272,89.71264077109475
8.66,-0.025864629872961738,0.004845876245219489,89.27547589745257
8.67,-0.2595642501029793,-0.13000653845760568,89.36473992924338
8.68,-0.034558169350095015,0.005971685877947248,89.7469730910143
8.69,-0.26415400696978875,-0.12364326662044876,90.15209446606491
8.7,-0.034558169350095015,0.003083739428776038,90.38784306284577
8.71,-0.2543265275608555,-0.13460767347831912,90.49999530791628
8.72,-0.036880046353304524,-0.00788066742909432,90.61214755298678
8.73,-0.2636140355736935,-0.14155832425429052,90.87078436304735
8.74,-0.031102352415085514,0.0007831719184193112,91.20724109825888
8.75,-0.262426098502284,-0.13925775674393379,91.497921406911
8.76,-0.036286077817599766,-0.005580099918737593,91.55514194011025
8.77,-0.257782344495865,-0.13695718923357705,91.26217281013014
8.78,-0.028186506876171247,0.0025453087348627614,90.82500793648796
8.79,-0.267069852508703,-0.142145703193105,90.36495484956608
8.8,-0.035152137885799774,-0.0015173955919374155,89.91405704795608
8.81,-0.26939172951191254,-0.14792159609144742,89.53411270751313
8.82,-0.028780475411876005,0.0019579297960482783,89.10610311918282
8.83,-0.26415400696978875,-0.13925775674393379,88.6117177123414
8.84,-0.03396420081439026,0.005433255184033972,88.0852888069084
8.85,-0.2618861271061888,-0.1513969214794331,87.53368286686774
8.86,-0.02062690733083796,0.004845876245219489,87.01640924674662
8.87,-0.2636140355736935,-0.14390784000954845,86.60213258638413
8.88,-0.0421177688954283,0.0019579297960482783,86.20845531797336
8.89,-0.256648404564065,-0.125356455191991,85.78273455097103
8.9,-0.011933367853704685,0.04478764408460436,85.29979325076945
8.91,-0.21431464711019863,-0.09530223282264993,84.84889544915944
8.92,0.0605307935022758,0.05751418775891817,84.53532692722762
8.93,-0.2166365241134081,-0.1288317805799767,84.34535475700615
8.94,-0.005021733983685682,0.03318691004301831,84.1759819787364
8.95,-0.26129215857048405,-0.16241027658220467,83.96312159523522
8.96,-0.02294878433404747,0.0013705508572337947,83.71592889181451
8.97,-0.26534194404119826,-0.16010970907184793,83.45729208175395
8.98,-0.035152137885799774,-0.00675485779636656,83.27647519684436
8.99,-0.2647479755054935,-0.17631157813414744,83.08650302662289
9.0,-0.02354275286975223,-0.002104774530751899,82.88508674976157
9.01,-0.257782344495865,-0.15776019331659,82.73860218477151
9.02,-0.018359027467237977,0.006559064816761732,82.59211761978146
9.03,-0.2606981900347793,-0.16994830629699054,82.36781312964044
9.04,-0.032236292346885506,0.011209148082376393,82.12062042621973
9.05,-0.3238748433779217,-0.02119459004222261,81.82765129623964
9.06,0.2953643536640933,0.17440259658300036,81.46830634774841
9.07,0.9841518665231745,-0.4413663242741831,81.25544596424724
9.08,0.80790520283769,-0.7520897829070449,81.16618193245642
9.09,0.021112881587323672,-0.6554659474720623,81.07691790066562
9.1,0.034450175070875964,-0.16069708801066243,80.9647656555951
9.11,-0.24795486508693174,-0.16241027658220467,80.78394877068551
9.12,-0.025864629872961738,0.05168934661567454,80.59397660046405
9.13,-0.27808526898904584,-0.12305588768163428,80.44749203547399
9.14,-0.034558169350095015,0.07831719184193113,80.32389568376364
9.15,-0.2856448685343791,-0.11321729045649168,80.21174343869312
9.16,-0.026458598408666496,0.09280587233268839,80.11103530026246
9.17,-0.2815950830636648,-0.09354009600620648,79.93021841535287
9.18,-0.014849213392618951,0.10611979494581668,79.6715816052923
9.19,-0.2502767420901412,-0.06921281829030664,79.39234540328002
9.2,0.0008099570941428519,0.13274764017207324,79.12226448657961
9.21,-0.2421231740091032,-0.055360464983265065,78.91855938839032
9.22,0.015875159045199896,0.15878810645951535,78.77436364472824
9.23,-0.23634548007088418,-0.033333754777721936,78.6278790797382
9.24,0.038499960541590224,0.18771651919612867,78.44706219482859
9.25,-0.21431464711019863,0.005971685877947248,78.24564591796728
9.26,0.04487162301551399,0.2420980192813696,78.15638188617646
9.27,-0.19460569115272255,0.05516467200366024,78.49283862138799
9.28,0.08488350346617088,0.3103808209185533,79.95310662863257
9.29,-0.15340587363065614,0.14199885845840138,83.59233254010415
9.3,0.12138556984220873,0.38272632688253716,90.06054161294612
9.31,-0.11458193025140878,0.22648352915788458,97.9798634077208
9.32,0.16776911276678938,0.4788117316236064,104.83030564233368
9.33,-0.07748589533966617,0.28321454499838344,109.65971864434944
9.34,0.2147466242270748,0.521054066973348,112.49099062704778
9.35,-0.01776505893153322,0.3063670648366543,113.5346931526019
9.36,0.2640460126905697,0.5059780075437763,112.53447823227921
9.37,-0.01949296739903797,0.22418296164752785,109.55901050591878
9.38,0.21415265569137004,0.3682865946366811,105.41395508096592
9.39,-0.10297254523536124,0.06040213420808938,101.8662820226131
9.4,0.09994870541722792,0.1957929796048278,99.50650723347648
9.41,-0.21318070717839863,-0.10049074678217787,98.0920156527913
9.42,0.022840790054828423,0.09163111445505942,97.0025367006778
9.43,-0.2490888050187317,-0.16358503445983363,95.82379371677347
9.44,-0.005561705379780916,0.062115322779631624,94.57638609303007
9.45,-0.26302006703798875,-0.16877354841936157,93.35186668256635
9.46,0.007775588103771379,0.06735278498406076,92.59884446566437
9.47,-0.2636140355736935,-0.1641234651537469,92.39742818880305
9.48,0.002537865561647603,0.07024073143323198,92.69955260409503
9.49,-0.2647479755054935,-0.174549441317704,93.29693497069508
9.5,0.018791004584114163,0.08991792588351717,93.88058440932731
9.51,-0.26010422149907453,-0.1681861694805471,94.07055657954879
9.52,0.011825373574485638,0.07777876114801785,93.72265573769742
9.53,-0.24563298808372222,-0.16588560197019037,92.93530120087588
9.54,0.01760306751270465,0.08702997943434596,91.76800232361141
9.55,-0.25492049609656026,-0.17342363168497624,90.38784306284577
9.56,-0.0032398283765714075,0.07660400327038888,89.19536715097364
9.57,-0.2804071459922553,-0.19598877258443265,88.38741322220038
9.58,0.0008099570941428519,0.07136654106595974,88.10588819886013
9.59,-0.2734415149826268,-0.19540139364561815,88.28670508376972
9.6,0.004859742564857111,0.06559064816761731,88.81542281053069
9.61,-0.2723075750508268,-0.19540139364561815,89.30751939604414
9.62,-0.0021058884447714148,0.07024073143323198,89.63482084594379
9.63,-0.27290154358653157,-0.19946409797241832,89.84768122944496
9.64,0.00021598855843809383,0.06270270171844611,90.03765339966643
9.65,-0.27808526898904584,-0.2139038302182744,90.30773431636683
9.66,-0.0032398283765714075,0.06387745959607508,90.7014115847776
9.67,-0.2723075750508268,-0.20582736980957525,91.02642421334927
9.68,0.004859742564857111,0.0598147552692749,91.16146467169948
9.69,-0.28623883707008385,-0.2139038302182744,90.96004839483817
9.7,-0.0015119199090666568,0.07082811037204646,90.49999530791628
9.71,-0.2699856980476173,-0.2167917766674456,89.93694526123578
9.72,0.00140392562984761,0.0760166243315744,89.35329582260353
9.73,-0.29082859393689336,-0.20406523299313178,88.9046868423215
9.74,-0.004427765447980923,0.08355465404636027,88.5888294990617
9.75,-0.2699856980476173,-0.1809127131548609,88.16310873205937
9.76,0.03094036099625694,0.1147836342933303,87.55657108014744
9.77,-0.19692756815593207,-0.17802476670568967,86.87221350308454
9.78,0.03909392907729498,0.1118956878441591,86.29771934976418
9.79,-0.27290154358653157,-0.19422663576798918,85.84911036948215
9.8,0.007775588103771379,0.08414203298517475,85.51265363427062
9.81,-0.29261049954400764,-0.2295183203417594,85.18764100569894
9.82,-0.0009179513733618988,0.07484186645394543,84.73674320408894
9.83,-0.2943384080115124,-0.21914129242270353,84.24235779724751
9.84,-0.0009179513733618988,0.08007932865837457,83.83952524352488
9.85,-0.30184401041723613,-0.2301056992805739,83.55800022018461
9.86,0.004265774029152353,0.08007932865837457,83.45729208175395
9.87,-0.28100111452796006,-0.22261661781068923,83.3336957300436
9.88,0.015281190509495139,0.09628119772067407,83.07505891998304
9.89,-0.2827290229954648,-0.17978690352213314,82.79353389664278
9.9,0.012419342110190395,0.30808025340819656,82.55778529986192
9.91,-0.01544318192832371,-0.09065214955703528,82.40214544956
9.92,1.2062421017371445,-0.16529822303137587,82.31059259644121
9.93,0.5122168663359395,-0.9888034952492817,82.16639685277913
9.94,0.17705662077962742,-0.4095010168434974,81.95124764794998
9.95,-0.2253300635905414,-0.41933961406863995,81.71549905116912
9.96,0.04136180894089497,0.1147836342933303,81.47975045438825
9.97,-0.27981317745655054,-0.17572419919533297,81.24400185760739
9.98,0.016469127580904654,0.1865417613184997,81.05402968738592
9.99,-0.2804071459922553,-0.16010970907184793,80.90754512239587
