time_s,I,II,III
0,-0.0484186801472262,0.0171533016727637,0.065538923176438
0.0009765625,-0.0491141970996173,0.0139986714800715,0.0631091874879456
0.001953125,-0.0498632153560384,0.00768941109468717,0.0576103119824104
0.0029296875,-0.0506122336124596,0.004534780901995,0.055116635881063
0.00390625,-0.0541433196784452,-0.00400900920321297,0.0501292836783682
0.0048828125,-0.0545713301106859,-0.00598065307364558,0.0485947137698467
0.005859375,-0.0548388366308363,-0.00992394081451079,0.0448861698242531
0.0068359375,-0.0548388366308363,-0.00992394081451079,0.0448861698242531
0.0078125,-0.0546248314147159,-0.0117641417602479,0.0428400766128912
0.0087890625,-0.0512007479567906,-0.00683503208416638,0.0443746465214126
0.009765625,-0.0535013040300842,-0.00985821935216304,0.043671301980007
0.0107421875,-0.052752285773663,-0.00939816911572877,0.0433515999157317
0.01171875,-0.0518962649091816,-0.00578348868660232,0.0461010376684993
0.0126953125,-0.054036317070385,-0.0111069271367704,0.0429679574386013
0.013671875,-0.0533408001179939,-0.00801801840642594,0.0453337527142386
0.0146484375,-0.0528057870776931,-0.0144587217165058,0.0383003073001818
0.015625,-0.0524847792535126,-0.0160360368128519,0.036446035327385
0.0166015625,-0.0524312779494825,-0.0187306167691098,0.0336965975746174
0.017578125,-0.0526452831656028,-0.0225424615852795,0.0301159344547339
0.0185546875,-0.0530732935978435,-0.0274058497990133,0.0256401055548796
0.01953125,-0.0537153092462045,-0.0302975941423144,0.0234021911049525
0.0205078125,-0.0545178288066558,-0.0396957632580432,0.0148341757823743
0.021484375,-0.0583164213927917,-0.0494225396855107,0.00888771738685354
0.0224609375,-0.0592259435613032,-0.0562575717696771,0.00300519940418789
0.0234375,-0.062917533539379,-0.0684817637663593,-0.00556281591839034
0.0244140625,-0.06355954918774,-0.0741338095282661,-0.0105501681210851
0.025390625,-0.0639875596199807,-0.0846492435039066,-0.0207166937650399
0.0263671875,-0.0611519905063862,-0.0852407366650364,-0.0240415952335031
0.02734375,-0.061044987898326,-0.08747526638486,-0.0264713309219954
0.0283203125,-0.0606169774660854,-0.091484275588073,-0.0308832194089947
0.029296875,-0.0599749618177244,-0.0973992071993708,-0.0374051415202109
0.0302734375,-0.059118940953243,-0.0995680154568467,-0.0404103409243988
0.03125,-0.0581559174807015,-0.0954275633289382,-0.0372772606945008
0.0322265625,-0.05719289400816,-0.091221389738682,-0.0340162996388927
0.033203125,-0.0504517297003694,-0.0726879373566155,-0.0222512636735614
0.0341796875,-0.0409284975830144,-0.0490282109114242,-0.00805649201973774
0.03515625,-0.0287302002641552,-0.0262885849391014,0.00242973568849233
0.0361328125,-0.0167459081614163,-0.00486338821373377,0.0119568572038965
0.037109375,-0.00219355346523345,0.00650642477242761,0.00869589614828836
0.0380859375,0.00625965257151985,0.0107125983626838,0.0044758288998543
0.0390625,0.0173344225057473,0.0107783198250316,-0.00652192211121627
0.0400390625,0.031137758945509,0.0158388724258086,-0.0153456990852147
0.041015625,0.0418380197515258,0.0202422104031081,-0.0216118595450108
0.0419921875,0.0554808522791973,0.0331893384856156,-0.0222512636735614
0.04296875,0.0691236848068687,0.049356818223163,-0.019757587572214
0.0439453125,0.0917547364115944,0.077879932882088,-0.0138111291766933
0.044921875,0.120431435371719,0.116195545430828,-0.00422006724843406
0.0458984375,0.14643306913034,0.155759865764176,0.00933530027683897
0.046875,0.178640854156451,0.214383410178372,0.0357426907859793
0.0478515625,0.208280576589118,0.289108712867768,0.0808206818487977
0.048828125,0.238187805541935,0.376912586564367,0.138750695895483
0.0498046875,0.262477397571593,0.468725469464179,0.206271771870428
0.05078125,0.289923566539026,0.573091151672411,0.283192088535067
0.0517578125,0.31153809336718,0.671936231043433,0.360432107263981
0.052734375,0.333152620195334,0.782414009250007,0.449245340719662
0.0537109375,0.351664071389743,0.889342828489802,0.537674931698212
0.0546875,0.375846660811341,1.01283345624123,0.636974392862122
0.0556640625,0.399654741104729,1.13494393328336,0.735250807420351
0.056640625,0.4319695287389,1.26428377118374,0.832312354134335
0.0576171875,0.466852378966514,1.39493803833107,0.928095092591217
0.05859375,0.498471649648294,1.52690673472536,1.02848154077366
0.0595703125,0.526827340784239,1.65171179172374,1.12483974294624
0.060546875,0.546248314147159,1.76968181663796,1.22337191915589
0.0615234375,0.556788071041086,1.8900178141967,1.33322154844089
0.0625,0.543894256769836,2.00154713580084,1.45764959185684
0.0634765625,0.522333231245712,2.09894634300021,1.57657875976725
0.064453125,0.498097140520084,2.14166529352625,1.64358831243935
0.0654296875,0.47701762673223,2.13009831615304,1.65311543395476
0.06640625,0.453316549046903,2.07922990429588,1.6258768180785
0.0673828125,0.432986053515471,2.02126357450516,1.58827985531973
0.068359375,0.401206278921601,1.93858597487169,1.5373832866871
0.0693359375,0.366858441734287,1.83993805988771,1.47305923135491
0.0703125,0.329835539345469,1.7189448477055,1.38910546927621
0.0712890625,0.289977067843056,1.57816947535661,1.28814355737807
0.072265625,0.247283027227049,1.43174205724581,1.18443220772716
0.0732421875,0.198703843167733,1.27907110021198,1.08040115601197
0.07421875,0.149910653892296,1.12561148562998,0.975730700168238
0.0751953125,0.0950183159574295,0.962096487308765,0.867095938727488
0.076171875,0.0426940406160072,0.794046708085559,0.751363791459827
0.0771484375,0.00176554303299278,0.64775073289946,0.645989991074686
0.078125,-0.0308167511213285,0.53188379478037,0.562675633124541
0.0791015625,-0.0548923379348664,0.458341478413234,0.513249693987578
0.080078125,-0.0734037891292755,0.412862226468588,0.486266839762742
0.0810546875,-0.0862441020964957,0.381184481616971,0.467468358383354
0.08203125,-0.0963023472541515,0.352069873796916,0.448350174939691
0.0830078125,-0.103364519386123,0.323086708901557,0.426418613330405
0.083984375,-0.110266187606003,0.300675690240973,0.41094503341948
0.0849609375,-0.114064780192139,0.279381936440301,0.393425360297193
0.0859375,-0.117542364954095,0.259468333348931,0.376992674193442
0.0869140625,-0.123588012309494,0.241197766816256,0.364780055338125
0.087890625,-0.129259150536683,0.227593424110271,0.356851444144098
0.0888671875,-0.137551852661346,0.218392419381585,0.355892337951272
0.08984375,-0.13969190482255,0.219246798392106,0.35889753735546
0.0908203125,-0.141564450463603,0.218129533532194,0.359728762722576
0.091796875,-0.140440923078971,0.217472318908717,0.357938431162634
0.0927734375,-0.139317395694339,0.20800842833064,0.347324322628694
0.09375,-0.141189941335392,0.192169555904832,0.33338531262629
0.0947265625,-0.137444850053286,0.181259793155104,0.318679017669626
0.095703125,-0.136856335708955,0.16910132262077,0.305954875511469
0.0966796875,-0.130703685745496,0.158454445720434,0.289138546930588
0.09765625,-0.127814615327871,0.146230253723752,0.274048609496793
0.0986328125,-0.125246552734427,0.138343678242021,0.263626322201418
0.099609375,-0.122999497965164,0.12638237209473,0.24936761013474
0.1005859375,-0.12096644841202,0.116326988355524,0.237282872105133
0.1015625,-0.119040401466937,0.105745832917536,0.224750551185541
0.1025390625,-0.11422528410423,0.0921414902115506,0.206399652696138
0.103515625,-0.109410166741522,0.0818232206229532,0.191181834436634
0.1044921875,-0.10143847244104,0.0780770972691313,0.179544679297013
0.10546875,-0.0962488459501214,0.07840570458087,0.174621267507173
0.1064453125,-0.0877956399133681,0.0799830196772161,0.167843583744536
0.107421875,-0.082017499078119,0.0801144626019116,0.162152887000436
0.1083984375,-0.0759183504186894,0.0815603347735622,0.157485236862016
0.109375,-0.072440765656734,0.0842549147298201,0.156717951907756
0.1103515625,-0.0658601052610336,0.0908927824269432,0.156717951907756
0.111328125,-0.0620080113708676,0.0980564218228484,0.160042853376219
0.1123046875,-0.0581024161766714,0.102525481262496,0.160618317091914
0.11328125,-0.0541968209824753,0.109623399196053,0.163879278147522
0.1142578125,-0.0504517297003694,0.116195545430828,0.16662871590029
0.115234375,-0.0497562127479783,0.115998381043785,0.165733550120319
0.1162109375,-0.0464391318981131,0.120401719021085,0.166820537138855
0.1171875,-0.0462786279860228,0.117707139064827,0.164007158973233
0.1181640625,-0.0464391318981131,0.113763851323961,0.160170734201929
0.119140625,-0.0468136410263237,0.108571855798489,0.155375203237799
0.1201171875,-0.0474556566746847,0.102459759800148,0.149940268145119
0.12109375,-0.0482581762351359,0.095756170640677,0.143993809749598
0.1220703125,-0.0491141970996173,0.0887239741694674,0.137855530115512
0.123046875,-0.0470811475464741,0.0847149649662544,0.131781190894282
0.1240234375,-0.0479371684109554,0.0753167958505256,0.123277115984558
0.125,-0.0485791840593164,0.0667730057453177,0.115348504790531
0.1259765625,-0.0490606957955872,0.0621725033809749,0.111192377954952
0.126953125,-0.0492747010117075,0.058689265876544,0.107931416899344
0.1279296875,-0.0492211997076774,0.0594122019623693,0.108570821027894
0.12890625,-0.0459576201618423,0.0641441472514075,0.110105390936416
0.1298828125,-0.0454226071215415,0.0639469828643643,0.10940204639501
0.130859375,-0.0418380197515258,0.0703219647120964,0.112087543734923
0.1318359375,-0.0410355001910746,0.0711106222602694,0.112151484147778
0.1328125,-0.0372904089089687,0.0807059557630414,0.117970061717588
0.1337890625,-0.0364878893485174,0.0841234718051246,0.120591618644646
0.134765625,-0.0358458737001564,0.0839263074180814,0.11976039327753
0.1357421875,-0.032421790242231,0.0886582527071196,0.121039201534631
0.13671875,-0.029211712000426,0.0923386545985938,0.121550724837472
0.1376953125,-0.0291582106963959,0.092010047286855,0.121167082360341
0.138671875,-0.0293722159125162,0.0876067093095556,0.117010955524762
0.1396484375,-0.0327427980664115,0.0852407366650364,0.117970061717588
0.140625,-0.0303887406890878,0.0851750152026887,0.115540326029096
0.1416015625,-0.0340268293631335,0.0758425675493077,0.109913569697851
0.142578125,-0.0318867772019302,0.0782085401938268,0.110105390936416
0.1435546875,-0.0296932237366967,0.077879932882088,0.107547774422213
0.14453125,-0.0303352393850577,0.0751853529258301,0.105501681210851
0.1455078125,-0.0308702524253586,0.0732137090553975,0.10409499212804
0.146484375,-0.0282486885278844,0.0752510743881779,0.103455587999489
0.1474609375,-0.0283556911359446,0.0753167958505256,0.103647409238055
0.1484375,-0.0282486885278844,0.0734765949047885,0.101729196852403
0.1494140625,-0.0279276807037039,0.0754482387752211,0.103391647586634
0.150390625,-0.0244500959417485,0.081100284537128,0.105565621623706
0.1513671875,-0.0238080802933875,0.0812974489241712,0.105118038733721
0.15234375,-0.0231125633409964,0.08747526638486,0.110616914239256
0.1533203125,-0.0224170463886053,0.0876724307719033,0.110105390936416
0.154296875,-0.0217750307402443,0.0932587550714624,0.115028802726256
0.1552734375,-0.0182974459782888,0.0981878647475439,0.116499432221922
0.15625,-0.0179764381541083,0.102196873950757,0.120207976167516
0.1572265625,-0.0207050046596426,0.0994365725321512,0.120207976167516
0.158203125,-0.0207585059636727,0.101605380789627,0.122381950204588
0.1591796875,-0.0210260124838231,0.0999623442309332,0.120975261121776
0.16015625,-0.0185114511944091,0.103445581735364,0.121998307727457
0.1611328125,-0.0161573938170854,0.106468769003361,0.122637711856008
0.162109375,-0.0167994094654464,0.103445581735364,0.120271916580371
0.1630859375,-0.0203839968354621,0.100488115929715,0.120911320708921
0.1640625,-0.0210260124838231,0.094967513092504,0.115987908919081
0.1650390625,-0.0215610255241239,0.0958876135653725,0.117394598001893
0.166015625,-0.0189929629306799,0.0975306501240664,0.116563372634777
0.1669921875,-0.0162643964251456,0.103051252961278,0.119312810387545
0.16796875,-0.013375326007521,0.10942623480901,0.122765592681718
0.1689453125,-0.0131613207914007,0.110740664055965,0.123916520113109
0.169921875,-0.0128403129672202,0.112778029388745,0.125642911260196
0.1708984375,-0.0123588012309494,0.118232910763609,0.130630263462891
0.171875,-0.0117702868866185,0.123950677987863,0.135745496491295
0.1728515625,-0.0111817725422876,0.126776700868817,0.137919470528368
0.173828125,-0.0105397568939266,0.129274116438031,0.139837682914019
0.1748046875,-0.0100582451576558,0.131311481770812,0.141372252822541
0.17578125,-0.00963023472541515,0.135583376823416,0.145208677593845
0.1767578125,-0.00936272820526473,0.139066614327847,0.148469638649453
0.177734375,-0.00930922690123465,0.138803728478456,0.148149936585177
0.1787109375,-0.00941622950929481,0.14070965088654,0.150132089383684
0.1796875,-0.00968373602944524,0.1418926372088,0.151602718879351
0.1806640625,-0.0101117464616859,0.139592386026629,0.149748446906554
0.181640625,-0.00770418778033212,0.142944180606364,0.150643612686525
0.1826171875,-0.00823920082063296,0.143272787918103,0.151474838053641
0.18359375,-0.00588514344330926,0.143732838154537,0.149620566080844
0.1845703125,-0.0064201564836101,0.144652938627406,0.15109119557651
0.185546875,-0.00679466561182069,0.143272787918103,0.150068148970829
0.1865234375,-0.0071156734360012,0.145441596175579,0.152561825072177
0.1875,-0.00722267604406136,0.145507317637927,0.152753646310742
0.1884765625,-0.00716917474003128,0.149253440991748,0.15639824984348
0.189453125,-0.00989774124556557,0.147807568820098,0.157677058100582
0.1904296875,-0.00369158997807581,0.155628422839481,0.159339508834813
0.19140625,-0.00321007824180505,0.157994395484,0.16119378080761
0.1923828125,0.000214005216120337,0.163317833934168,0.163111993193262
0.193359375,0.000749018256421178,0.165618085116339,0.164902324753203
0.1943359375,0.00123052999269194,0.167589728986772,0.16637295424887
0.1953125,0.00165854042493261,0.171993066964071,0.170337259845884
0.1962890625,0.00192604694508303,0.172847445974592,0.170912723561579
0.197265625,0.00208655085717328,0.172978888899287,0.170848783148724
0.1982421875,0.00208655085717328,0.172387395738158,0.170273319433029
0.19921875,0.00486861866673766,0.174096153759199,0.169186332414493
0.2001953125,0.00460111214658724,0.172387395738158,0.167779643331681
0.201171875,0.00716917474003128,0.173176053286331,0.166053252184595
0.2021484375,0.00668766300376052,0.173898989372156,0.167204179615986
0.203125,0.00620615126748976,0.17173018111468,0.165541728881754
0.2041015625,0.00572463953121901,0.172716003049896,0.16701235837742
0.205078125,0.00535013040300842,0.174161875221547,0.168866630350217
0.2060546875,0.00791819299645246,0.179090984897629,0.171168485212999
0.20703125,0.0107002608060168,0.181719843391539,0.171040604387289
0.2080078125,0.0106467595019868,0.187963382314575,0.17737070525994
0.208984375,0.0107002608060168,0.191906670055441,0.181207130031244
0.2099609375,0.0138568377437918,0.19631000803274,0.182485938288345
0.2109375,0.0141778455679723,0.201107674784126,0.1869617671882
0.2119140625,0.014605856000213,0.206102505922555,0.191501536500909
0.212890625,0.0150338664324537,0.211097337060985,0.196041305813618
0.2138671875,0.018404448586349,0.215895003812371,0.19744799489643
0.21484375,0.0188324590185896,0.217406597446369,0.198534981914966
0.2158203125,0.0220960385644248,0.224241629530535,0.202179585447704
0.216796875,0.0223100437805451,0.224635958304622,0.202371406686269
0.2177734375,0.0223635450845752,0.22733053826088,0.204992963613327
0.21875,0.0223635450845752,0.226541880712707,0.204225678659066
0.2197265625,0.0221495398684548,0.225293172928099,0.203074751227675
0.220703125,0.0218820333483044,0.226541880712707,0.204609321136197
0.2216796875,0.0245035972457786,0.230485168453572,0.206016010219008
0.22265625,0.0240755868135379,0.231536711851136,0.207422699301819
0.2236328125,0.0236475763812972,0.232653976711048,0.209021209623196
0.224609375,0.0262156389747412,0.237057314688347,0.210875481595993
0.2255859375,0.0258946311505607,0.233114026947482,0.207230878063254
0.2265625,0.0256271246304103,0.2325882552487,0.206975116411834
0.2275390625,0.0284626937440048,0.238503186859998,0.210108196641732
0.228515625,0.0314052654656594,0.242052145826777,0.210683660357427
0.2294921875,0.0315122680737196,0.246126876492337,0.214647965954441
0.23046875,0.0346688450114945,0.250530214469637,0.215862833798687
0.2314453125,0.0378789232532996,0.258088182639628,0.220210781872832
0.232421875,0.0382534323815102,0.265777593734316,0.227499988938309
0.2333984375,0.0386279415097208,0.267420630293009,0.22877879719541
0.234375,0.0390024506379314,0.271823968270309,0.232807043205279
0.2353515625,0.0393234584621119,0.275767256011174,0.236451646738017
0.236328125,0.0424800353998868,0.282207959321254,0.239712607793625
0.2373046875,0.0455831110336317,0.285231146589251,0.23964866738077
0.23828125,0.0485256827552863,0.290620306501766,0.242078403069263
0.2392578125,0.0484721814512563,0.292591950372199,0.244124496280625
0.240234375,0.0512542492608206,0.294234986930893,0.242973568849233
0.2412109375,0.0480441710190156,0.292657671834547,0.244636019583465
0.2421875,0.0506657349164897,0.296863845424803,0.246234529904842
0.2431640625,0.0502912257882791,0.298178274671758,0.247896980639073
0.244140625,0.0558018601033778,0.302647334111405,0.246873934033392
0.2451171875,0.0554808522791973,0.30455325651949,0.249047908070464
0.24609375,0.0581559174807015,0.309745252044963,0.251605524584667
0.2470703125,0.0579954135686112,0.312505553463568,0.254546783576
0.248046875,0.0608309826822057,0.315791626580956,0.25493042605313
0.2490234375,0.0608844839862358,0.31947202847243,0.258575029585868
0.25,0.0639340583159506,0.323546759137991,0.259598076191549
0.2509765625,0.0641480635320709,0.327884375652943,0.263754203027128
0.251953125,0.0644690713562514,0.33235343509259,0.267910329862707
0.2529296875,0.0647900791804319,0.336822494532237,0.272002516285431
0.25390625,0.0651110870046124,0.338136923779192,0.273025562891112
0.2548828125,0.0683211652464175,0.345037677325706,0.276734106836706
0.255859375,0.0715312434882225,0.351609823560482,0.280122948718024
0.2568359375,0.077576890843622,0.363571129707773,0.28600546670069
0.2578125,0.0776303921476521,0.366265709664031,0.288627023627747
0.2587890625,0.0776303921476521,0.368565960846202,0.29092887849053
0.259765625,0.0805194625652767,0.376386814865585,0.295916230693224
0.2607421875,0.0803054573491563,0.378029851424279,0.297706562253166
0.26171875,0.0771488804113814,0.373757956371675,0.296555634821775
0.2626953125,0.0798239456128856,0.378161294348974,0.298345966381717
0.263671875,0.0795029377887051,0.382761796713317,0.303269378171556
0.2646484375,0.0821245016861792,0.387559463464703,0.305379411795773
0.265625,0.0819104964700589,0.386836527378878,0.304931828905788
0.2666015625,0.0846390629755932,0.392357130216089,0.307745207071411
0.267578125,0.0874211307851575,0.395380317484086,0.307937028309976
0.2685546875,0.0873676294811275,0.398797833526169,0.311453751017004
0.26953125,0.0874211307851575,0.402609678342339,0.315162294962598
0.2705078125,0.0905242064189024,0.4095761533512,0.319062660146757
0.271484375,0.0936272820526473,0.416739792747106,0.323090906156625
0.2724609375,0.0938947885727977,0.420945966337362,0.327055211753639
0.2734375,0.0971048668146028,0.425152139927618,0.328014317946465
0.2744140625,0.100314945056408,0.432052893474132,0.331722861892059
0.275390625,0.0976398798549036,0.432775829559957,0.335175644186232
0.2763671875,0.0978003837669939,0.439019368482994,0.341186042994608
0.27734375,0.0950183159574295,0.436127624139693,0.341058162168898
0.2783203125,0.092182746843835,0.435733295365606,0.343551838270245
0.279296875,0.0921292455398049,0.435010359279781,0.342848493728839
0.2802734375,0.0891331725141202,0.434024537344565,0.344894586940201
0.28125,0.0918617390196545,0.441648226976904,0.349754058317186
0.2822265625,0.0916477338035342,0.440399519192297,0.348731011711505
0.283203125,0.0943227990050384,0.445065743018987,0.350777104922867
0.2841796875,0.094055292484888,0.446971665427072,0.352951078959939
0.28515625,0.090898715547113,0.446248729341247,0.355316874235576
0.2861328125,0.0936272820526473,0.448746144910462,0.355125052997011
0.287109375,0.093466778140557,0.448614701985766,0.355188993409866
0.2880859375,0.093413276836527,0.448943309297505,0.355508695474142
0.2890625,0.093413276836527,0.452426546801936,0.359089358594025
0.2900390625,0.093466778140557,0.453346647274804,0.359856643548286
0.291015625,0.0936272820526473,0.454398190672368,0.360815749741112
0.2919921875,0.090898715547113,0.452623711188979,0.361710915521083
0.29296875,0.0881701490415787,0.450783510243242,0.362606081301053
0.2939453125,0.0913802272833838,0.457618542327408,0.366314625246647
0.294921875,0.0915942324995041,0.458407199875581,0.366826148549487
0.2958984375,0.0888656659939698,0.455975505768715,0.367081910200908
0.296875,0.0890261699060601,0.45610694869341,0.367081910200908
0.2978515625,0.0890796712100901,0.455909784306367,0.366826148549487
0.298828125,0.0861906007924656,0.449534802458635,0.363373366255314
0.2998046875,0.0861370994884355,0.451703610716111,0.365547340292386
0.30078125,0.0830875251587207,0.447760322975245,0.36471611492527
0.3017578125,0.0828735199426004,0.44381703523438,0.360943630566822
0.302734375,0.0797704443088555,0.439808026031167,0.360048464786851
0.3037109375,0.0795564390927352,0.43593045975265,0.356403861254112
0.3046875,0.0763998621549602,0.432250057861175,0.355892337951272
0.3056640625,0.0761858569388399,0.425875076013443,0.349690117904331
0.306640625,0.0701937108874704,0.416936957134149,0.346748858912998
0.3076171875,0.0671976378617857,0.411153468447547,0.343999421160231
0.30859375,0.0671441365577556,0.408656052878332,0.341505745058883
0.3095703125,0.0642550661401311,0.403464057352859,0.339203890196101
0.310546875,0.0614194970265366,0.39846922621443,0.337029916159029
0.3115234375,0.0556948574953176,0.387756627851746,0.332042563956334
0.3125,0.0529662909897833,0.382827518175665,0.329868589919262
0.3134765625,0.050237724484249,0.377898408499583,0.32769461588219
0.314453125,0.0475091579787147,0.369880390093157,0.322323621202365
0.3154296875,0.047669661890805,0.36744869598629,0.319766004688162
0.31640625,0.0448875940812406,0.358904905881082,0.314011367531207
0.3173828125,0.0449945966893008,0.352989974269785,0.308000968722831
0.318359375,0.0421055262716762,0.343854691003447,0.30179874867589
0.3193359375,0.0421055262716762,0.337413987693367,0.295340766977529
0.3203125,0.0390559519419614,0.330841841458592,0.291760103857645
0.3212890625,0.0360598789162767,0.324072530836773,0.288051559912052
0.322265625,0.0300142315608772,0.311454010066004,0.281401756975125
0.3232421875,0.029853727648787,0.310599631055484,0.280762352846575
0.32421875,0.0267506520150421,0.301070019015059,0.274304371148214
0.3251953125,0.0236475763812972,0.294695037167327,0.271043410092605
0.326171875,0.0205445007475523,0.288517219706638,0.267974270275563
0.3271484375,0.0175484277218676,0.282668009557688,0.26516089210994
0.328125,0.0174949264178375,0.277081685258129,0.259598076191549
0.3291015625,0.0145523546961829,0.268735059539964,0.254227081511724
0.330078125,0.0116632842785584,0.260651319671191,0.248983967657609
0.3310546875,0.00882771516496389,0.252633301264765,0.243804794216349
0.33203125,0.00893471777302406,0.250530214469637,0.241630820179277
0.3330078125,0.00909522168511431,0.24546966186886,0.236387706325162
0.333984375,0.00631315387554993,0.237385922000086,0.231080652058192
0.3349609375,0.00353108606598556,0.229105017744269,0.225581776552657
0.3359375,-0.00214005216120337,0.217735204758108,0.219891079808556
0.3369140625,-0.0020330495531432,0.211885994609158,0.213944621413036
0.337890625,-0.00492211997076774,0.205905341535512,0.210747600770282
0.3388671875,-0.00486861866673766,0.202553546955777,0.207422699301819
0.33984375,-0.00781119038839229,0.196112843645697,0.203905976594791
0.3408203125,-0.00791819299645246,0.192432441754223,0.200325313474907
0.341796875,-0.0138568377437918,0.179945363908149,0.193803391363691
0.3427734375,-0.0140173416558821,0.173373217673374,0.18734540966533
0.34375,-0.0141243442639422,0.166866792900946,0.181015308792679
0.3447265625,-0.0142848481760325,0.163383555396515,0.177690407324216
0.345703125,-0.0144453520881227,0.160163203741476,0.174621267507173
0.3466796875,-0.0204374981394922,0.151290806324529,0.17168000851584
0.34765625,-0.0204909994435222,0.148464783443575,0.168994511175927
0.3486328125,-0.0205445007475523,0.148793390755314,0.169314213240203
0.349609375,-0.0205445007475523,0.143469952305146,0.164007158973233
0.3505859375,-0.0234335711651769,0.141169701122975,0.164582622688928
0.3515625,-0.0203839968354621,0.141826915746452,0.162280767826146
0.3525390625,-0.0232195659490565,0.136700641683328,0.159914972550509
0.353515625,-0.0231125633409964,0.134400390501156,0.157485236862016
0.3544921875,-0.0258946311505607,0.131902974931941,0.157804938926292
0.35546875,-0.0257341272384705,0.13223158224368,0.157996760164857
0.3564453125,-0.0226845529087557,0.135320490974025,0.157996760164857
0.357421875,-0.0255201220223502,0.129339837900379,0.154927620347814
0.3583984375,-0.0254666207183201,0.129076952050988,0.154543977870683
0.359375,-0.0284091924399747,0.125725157471253,0.154096394980698
0.3603515625,-0.0284091924399747,0.125133664310123,0.153584871677858
0.361328125,-0.0285161950480349,0.121584705343344,0.150068148970829
0.3623046875,-0.0315122680737196,0.118035746376565,0.149556625667989
0.36328125,-0.0316192706817797,0.117444253215436,0.149109042778003
0.3642578125,-0.03177977459387,0.116984202979001,0.148725400300873
0.365234375,-0.0318867772019302,0.116655595667263,0.148533579062308
0.3662109375,-0.0319937798099903,0.116524152742567,0.148533579062308
0.3671875,-0.0321007824180505,0.116524152742567,0.148661459888018
0.3681640625,-0.0321542837220806,0.116787038591958,0.148917221539438
0.369140625,-0.0322077850261107,0.117181367366045,0.149364804429424
0.3701171875,-0.0350968554437352,0.111792207453529,0.146935068740931
0.37109375,-0.0350433541397051,0.112383700614659,0.147446592043772
0.3720703125,-0.034989852835675,0.11001772797014,0.145016856355279
0.373046875,-0.0348828502276149,0.10765175532562,0.142523180253932
0.3740234375,-0.0318332758979001,0.111003549905356,0.142842882318207
0.375,-0.0317262732898399,0.108374691411446,0.14009344456544
0.3759765625,-0.0316192706817797,0.10561438999284,0.137216125986962
0.376953125,-0.0315122680737196,0.10561438999284,0.137088245161252
0.3779296875,-0.0314587667696895,0.105417225605797,0.136832483509831
0.37890625,-0.0314052654656594,0.102131152488409,0.133507582041368
0.3798828125,-0.0314052654656594,0.101671102251975,0.133059999151383
0.380859375,-0.034347837187314,0.0982535862098916,0.132612416261397
0.3818359375,-0.0344013384913441,0.100619558854411,0.13504215194989
0.3828125,-0.0345083410994043,0.100159508617976,0.134658509472759
0.3837890625,-0.0346153437074645,0.09976517984389,0.134338807408484
0.384765625,-0.0347223463155246,0.0994365725321512,0.134210926582774
0.3857421875,-0.0318867772019302,0.105154339756406,0.137088245161252
0.38671875,-0.0319937798099903,0.102262595413105,0.134274866995629
0.3876953125,-0.034989852835675,0.1023940383378,0.137407947225527
0.388671875,-0.0350433541397051,0.10561438999284,0.14073284869399
0.3896484375,-0.0321542837220806,0.111923650378224,0.144057750162453
0.390625,-0.0350433541397051,0.10942623480901,0.144505333052439
0.3916015625,-0.034989852835675,0.112843750851093,0.147830234520902
0.392578125,-0.0378789232532996,0.110346335281878,0.148213876998032
0.3935546875,-0.0377719206452394,0.113698129861614,0.151410897640785
0.39453125,-0.0347223463155246,0.116852760054306,0.151602718879351
0.3955078125,-0.0375579154291191,0.1140924586357,0.151602718879351
0.396484375,-0.0374509128210589,0.114026737173353,0.151474838053641
0.3974609375,-0.0402864819346534,0.108046084099707,0.148341757823743
0.3984375,-0.0402329806306233,0.110674942593617,0.1509633147508
0.3994140625,-0.0402329806306233,0.107388869476229,0.147638413282337
0.400390625,-0.0372904089089687,0.106928819239795,0.144249571401019
0.4013671875,-0.0373439102129988,0.106534490465709,0.143865928923888
0.40234375,-0.0373974115170288,0.106074440229274,0.143546226859613
0.4033203125,-0.037504414125089,0.108703298723184,0.14616778378667
0.404296875,-0.0376114167331492,0.108440412873793,0.14603990296096
0.4052734375,-0.0376649180371793,0.108374691411446,0.14603990296096
0.40625,-0.0377719206452394,0.105482947068145,0.143226524795338
0.4072265625,-0.0378254219492695,0.10561438999284,0.143482286446758
0.408203125,-0.0378789232532996,0.10298553149893,0.1408607295197
0.4091796875,-0.0379324245573297,0.103314138810669,0.141244371996831
0.41015625,-0.0379324245573297,0.103708467584755,0.141691954886816
0.4111328125,-0.034989852835675,0.107060262164491,0.142075597363947
0.412109375,-0.0378789232532996,0.104497125132928,0.142395299428222
0.4130859375,-0.0378254219492695,0.104825732444667,0.142587120666787
0.4140625,-0.0377184193412093,0.107914641175011,0.14565626048383
0.4150390625,-0.0405539884548038,0.105088618294058,0.14565626048383
0.416015625,-0.0375579154291191,0.107980362637359,0.14552837965812
0.4169921875,-0.037504414125089,0.107783198250316,0.1452726180067
0.41796875,-0.0374509128210589,0.107520312400925,0.144952915942424
0.4189453125,-0.0344548397953742,0.110083449432487,0.144569273465294
0.419921875,-0.0344548397953742,0.109689120658401,0.144185630988164
0.4208984375,-0.0344548397953742,0.112252257689963,0.146743247502366
0.421875,-0.0344548397953742,0.111923650378224,0.146423545438091
0.4228515625,-0.0345083410994043,0.111660764528833,0.14616778378667
0.423828125,-0.0345618424034344,0.111529321604138,0.146103843373815
0.4248046875,-0.0346688450114945,0.108506134336141,0.143162584382483
0.42578125,-0.0376649180371793,0.105680111455188,0.143290465208193
0.4267578125,-0.0347758476195547,0.108769020185532,0.143546226859613
0.427734375,-0.0348828502276149,0.109031906034923,0.143929869336743
0.4287109375,-0.0319937798099903,0.115209723495612,0.147254770805206
0.4296875,-0.0319937798099903,0.118561518075348,0.15057967227367
0.4306640625,-0.034936351531645,0.115932659581437,0.150899374337945
0.431640625,-0.034936351531645,0.113369522549875,0.148277817410887
0.4326171875,-0.034936351531645,0.116524152742567,0.151410897640785
0.43359375,-0.0348828502276149,0.116655595667263,0.151538778466496
0.4345703125,-0.0348293489235848,0.116655595667263,0.151474838053641
0.435546875,-0.0347223463155246,0.116589874204915,0.15134695722793
0.4365234375,-0.0317262732898399,0.119350175623521,0.15109119557651
0.4375,-0.0346153437074645,0.116129823968481,0.15070755309938
0.4384765625,-0.0345618424034344,0.115735495194394,0.150323910622249
0.439453125,-0.0345083410994043,0.118364353688304,0.152881527136452
0.4404296875,-0.0315657693777497,0.115078280570917,0.146615366676656
0.44140625,-0.0315657693777497,0.114749673259178,0.146295664612381
0.4423828125,-0.0315657693777497,0.114552508872135,0.146103843373815
0.443359375,-0.0315657693777497,0.114421065947439,0.14603990296096
0.4443359375,-0.0316192706817797,0.114421065947439,0.14603990296096
0.4453125,-0.0287302002641552,0.117509974677783,0.146231724199526
0.4462890625,-0.0317262732898399,0.111857928915877,0.143610167272468
0.447265625,-0.0288907041762455,0.117970024914218,0.146871128328076
0.4482421875,-0.0289442054802755,0.115406887882655,0.144377452226729
0.44921875,-0.0289977067843056,0.115801216656742,0.144761094703859
0.4501953125,-0.0290512080883357,0.116129823968481,0.145144737180989
0.451171875,-0.0290512080883357,0.11350096547457,0.142523180253932
0.4521484375,-0.0261621376707112,0.116589874204915,0.142778941905352
0.453125,-0.0261621376707112,0.11672131712961,0.142842882318207
0.4541015625,-0.0261086363666811,0.113763851323961,0.139837682914019
0.455078125,-0.026055135062651,0.113632408399266,0.139709802088309
0.4560546875,-0.0260016337586209,0.113369522549875,0.139390100024034
0.45703125,-0.0288907041762455,0.110083449432487,0.139006457546904
0.4580078125,-0.0288372028722154,0.11264658646405,0.141500133648251
0.458984375,-0.0287837015681853,0.112317979152311,0.141052550758266
0.4599609375,-0.0257876285425006,0.114881116183873,0.140668908281135
0.4609375,-0.0257341272384705,0.114618230334482,0.14034920621686
0.4619140625,-0.028623197656095,0.11146360014179,0.14009344456544
0.462890625,-0.028623197656095,0.114355344485091,0.142970763143917
0.4638671875,-0.028623197656095,0.114421065947439,0.143034703556772
0.46484375,-0.0286766989601251,0.114552508872135,0.143226524795338
0.4658203125,-0.0286766989601251,0.114815394721526,0.143546226859613
0.466796875,-0.0287302002641552,0.112252257689963,0.14098861034541
0.4677734375,-0.0287837015681853,0.11264658646405,0.141500133648251
0.46875,-0.0288907041762455,0.113040915238136,0.141947716538236
0.4697265625,-0.0260016337586209,0.116326988355524,0.142331359015367
0.470703125,-0.026055135062651,0.116655595667263,0.142715001492497
0.4716796875,-0.0261086363666811,0.119744504397607,0.145848081722395
0.47265625,-0.0261621376707112,0.116852760054306,0.142970763143917
0.4736328125,-0.0261621376707112,0.119678782935259,0.145848081722395
0.474609375,-0.0261621376707112,0.116589874204915,0.142715001492497
0.4755859375,-0.0261086363666811,0.119218732698825,0.1452726180067
0.4765625,-0.026055135062651,0.11586693811909,0.141947716538236
0.4775390625,-0.0260016337586209,0.115472609345003,0.141436193235396
0.478515625,-0.0288907041762455,0.109163348959619,0.138047351354078
0.4794921875,-0.0288372028722154,0.108769020185532,0.137599768464092
0.48046875,-0.0287302002641552,0.111397878679442,0.140157384978295
0.4814453125,-0.0257876285425006,0.111266435754747,0.137024304748397
0.482421875,-0.0286766989601251,0.105351504143449,0.134019105344209
0.4833984375,-0.028623197656095,0.102525481262496,0.131141786765731
0.484375,-0.028623197656095,0.0998309013062377,0.128392349012963
0.4853515625,-0.028623197656095,0.100159508617976,0.128775991490094
0.486328125,-0.0286766989601251,0.0976620930487619,0.126282315388746
0.4873046875,-0.0257876285425006,0.101013887628497,0.126793838691587
0.48828125,-0.0258411298465307,0.0985821935216304,0.124364103003094
0.4892578125,-0.0258946311505607,0.096019056490068,0.121934367314602
0.490234375,-0.0259481324545908,0.0993051296074557,0.125259268783065
0.4912109375,-0.0289442054802755,0.0936530838455489,0.122573771443153
0.4921875,-0.0289977067843056,0.0966105496511978,0.125642911260196
0.4931640625,-0.0290512080883357,0.0964791067265023,0.125578970847341
0.494140625,-0.0261621376707112,0.096281942339459,0.122381950204588
0.4951171875,-0.0261621376707112,0.0958876135653725,0.122062248140312
0.49609375,-0.0291047093923658,0.0924700975232893,0.121550724837472
0.4970703125,-0.0290512080883357,0.0949017916301562,0.123980460525964
0.498046875,-0.0319402785059603,0.0885268097824241,0.120463737818936
0.4990234375,-0.0289442054802755,0.0939816911572877,0.122893473507428
0.5,-0.03177977459387,0.0877381522342511,0.119568572038965
0.5009765625,-0.0317262732898399,0.0875409878472078,0.11924886997469
0.501953125,-0.0316727719858098,0.08747526638486,0.119120989148979
0.5029296875,-0.0286766989601251,0.0934559194585056,0.122126188553167
0.50390625,-0.028623197656095,0.0937188053078966,0.122318009791733
0.5048828125,-0.028623197656095,0.0941131340819832,0.122701652268863
0.505859375,-0.0285696963520649,0.0945731843184174,0.123149235158848
0.5068359375,-0.0315122680737196,0.0922072116738983,0.123724698874544
0.5078125,-0.028623197656095,0.0956904491783292,0.124300162590239
0.5087890625,-0.0286766989601251,0.0962162208771113,0.124875626305935
0.509765625,-0.0287302002641552,0.0936530838455489,0.122381950204588
0.5107421875,-0.0288372028722154,0.0939159696949399,0.122765592681718
0.51171875,-0.0288907041762455,0.0881324810083376,0.117074895937617
0.5126953125,-0.0289977067843056,0.0880667595459898,0.117010955524762
0.513671875,-0.0319937798099903,0.081888942085301,0.113877875294864
0.5146484375,-0.0291047093923658,0.0873438234601645,0.116435491809067
0.515625,-0.0291582106963959,0.0838605859557336,0.112982709514894
0.5166015625,-0.0262156389747412,0.086160837137905,0.112407245799198
0.517578125,-0.0291582106963959,0.0826118781711263,0.111767841670647
0.5185546875,-0.0261621376707112,0.0849778508156454,0.111192377954952
0.51953125,-0.0290512080883357,0.0786685904302611,0.107739595660779
0.5205078125,-0.0318867772019302,0.07840570458087,0.110297212174981
0.521484375,-0.03177977459387,0.0783399831185223,0.110105390936416
0.5224609375,-0.0317262732898399,0.07840570458087,0.110105390936416
0.5234375,-0.0316192706817797,0.0787343118926088,0.110297212174981
0.5244140625,-0.0315657693777497,0.0791943621290431,0.110744795064966
0.525390625,-0.0285696963520649,0.082677599633474,0.111256318367807
0.5263671875,-0.0285161950480349,0.0833348142569516,0.111895722496358
0.52734375,-0.0285161950480349,0.0840577503427769,0.112535126624908
0.5283203125,-0.0285161950480349,0.0846492435039066,0.113174530753459
0.529296875,-0.0285696963520649,0.0851750152026887,0.113749994469154
0.5302734375,-0.0315657693777497,0.0825461567087785,0.114133636946285
0.53125,-0.0316727719858098,0.0856350654391229,0.117330657589038
0.5322265625,-0.03177977459387,0.0855693439767752,0.117330657589038
0.533203125,-0.0348293489235848,0.0852407366650364,0.12001615492895
0.5341796875,-0.034936351531645,0.0847149649662544,0.11963251245182
0.53515625,-0.034989852835675,0.0840577503427769,0.119057048736124
0.5361328125,-0.0321542837220806,0.0833348142569516,0.115476385616241
0.537109375,-0.0321542837220806,0.0855036225144274,0.117714300066168
0.5380859375,-0.029265213304456,0.081888942085301,0.111128437542097
0.5390625,-0.029211712000426,0.081363170386519,0.110552973826401
0.5400390625,-0.0320472811140204,0.0750539100011346,0.107164131945083
0.541015625,-0.0319402785059603,0.0749224670764391,0.106844429880808
0.5419921875,-0.0347758476195547,0.0691389783898368,0.103903170889475
0.54296875,-0.0346688450114945,0.0723593300448767,0.107036251119373
0.5439453125,-0.0345083410994043,0.0728851017436587,0.107419893596503
0.544921875,-0.0344013384913441,0.073608037829484,0.107995357312199
0.5458984375,-0.0314052654656594,0.0772884397209582,0.108698701853604
0.546875,-0.034294335883284,0.0751853529258301,0.109465986807865
0.5478515625,-0.0313517641616293,0.0759740104740032,0.107292012770793
0.548828125,-0.034294335883284,0.0737394807541795,0.107995357312199
0.5498046875,-0.034347837187314,0.0712420651849649,0.105565621623706
0.55078125,-0.0315122680737196,0.0715049510343559,0.103008005109504
0.5517578125,-0.0316192706817797,0.0684817637663593,0.100130686531026
0.552734375,-0.03177977459387,0.0682188779169682,0.100002805705316
0.5537109375,-0.0348293489235848,0.0647356404125373,0.0996191632281857
0.5546875,-0.034989852835675,0.064012704326712,0.0989797590996351
0.5556640625,-0.0380394271653898,0.0631583253161912,0.101153733136707
0.556640625,-0.0380929284694199,0.0622382248433227,0.100322507769591
0.5576171875,-0.03814642977345,0.058426380027153,0.0965500234111428
0.55859375,-0.0352038580517954,0.0605951882846288,0.095782738456882
0.5595703125,-0.0322612863301408,0.0600694165858468,0.0922660157498536
0.560546875,-0.0321542837220806,0.059740809274108,0.0918823732727233
0.5615234375,-0.0319937798099903,0.059740809274108,0.0917544924470132
0.5625,-0.0318332758979001,0.060003695123499,0.0918823732727233
0.5634765625,-0.0316727719858098,0.0605951882846288,0.0922660157498536
0.564453125,-0.0315122680737196,0.0613838458328019,0.0929054198784043
0.5654296875,-0.034294335883284,0.0593464805000215,0.093672704832665
0.56640625,-0.0341873332752238,0.0632897682408867,0.0975091296039687
0.5673828125,-0.0341338319711937,0.0672330559817519,0.101345554375272
0.568359375,-0.0341338319711937,0.0680874349922727,0.102176779742388
0.5693359375,-0.0341338319711937,0.0716363939590514,0.105821383275127
0.5703125,-0.0342408345792539,0.0749224670764391,0.109210225156445
0.5712890625,-0.0314587667696895,0.0779456543444358,0.10940204639501
0.572265625,-0.0316192706817797,0.0776827684950448,0.109338105982155
0.5732421875,-0.0288907041762455,0.0830062069452128,0.111895722496358
0.57421875,-0.0291047093923658,0.0792600835913909,0.108315059376474
0.5751953125,-0.029265213304456,0.0811660059994757,0.110425093000691
0.576171875,-0.0293722159125162,0.085897951288514,0.115284564377676
0.5771484375,-0.0294792185205764,0.0878038736965988,0.117266717176183
0.578125,-0.0295327198246065,0.0956247277159815,0.125131387957355
0.5791015625,-0.0265366467989218,0.103642746122407,0.130182680572905
0.580078125,-0.023540573773237,0.109031906034923,0.132548475848542
0.5810546875,-0.0263226415828014,0.111792207453529,0.138111291766933
0.58203125,-0.0261086363666811,0.11205509330292,0.138175232179788
0.5830078125,-0.0259481324545908,0.115538330807351,0.141436193235396
0.583984375,-0.0257341272384705,0.119284454161173,0.145016856355279
0.5849609375,-0.0225775503006955,0.126250929170035,0.148853281126583
0.5859375,-0.0194744746669506,0.133283125641244,0.152753646310742
0.5869140625,-0.0164784016412659,0.137423577769153,0.153840633329278
0.587890625,-0.0134823286155812,0.144324331315667,0.157804938926292
0.5888671875,-0.0164249003372358,0.142286965982887,0.158700104706262
0.58984375,-0.0164784016412659,0.145770203487317,0.162280767826146
0.5908203125,-0.0166389055533562,0.145967367874361,0.162600469890421
0.591796875,-0.0167994094654464,0.145770203487317,0.162600469890421
0.5927734375,-0.0170669159855969,0.145244431788535,0.162280767826146
0.59375,-0.0202234929233718,0.138475121166717,0.158700104706262
0.5947265625,-0.0204374981394922,0.140315322112454,0.160746197917624
0.595703125,-0.0206515033556125,0.136109148522198,0.156717951907756
0.5966796875,-0.0208120072677027,0.137752185080892,0.158508283467697
0.59765625,-0.0208655085717328,0.142352687445234,0.163239874018972
0.5986328125,-0.0208655085717328,0.144324331315667,0.165222026817479
0.599609375,-0.0178694355460481,0.149516326841139,0.167396000854551
0.6005859375,-0.0207050046596426,0.1462959751861,0.166948417964565
0.6015625,-0.0204909994435222,0.149384883916444,0.169825736543043
0.6025390625,-0.0202234929233718,0.146953189809577,0.167204179615986
0.603515625,-0.0170669159855969,0.147873290282446,0.164902324753203
0.6044921875,-0.0109142660221372,0.154971208216003,0.165861430946029
0.60546875,-0.0107002608060168,0.153393893119657,0.164071099386088
0.6064453125,-0.00754368386824187,0.160688975440258,0.168227226221667
0.607421875,-0.0074366812601817,0.164960870492862,0.172383353057246
0.6083984375,-0.00738317995615162,0.168969879696075,0.176347658654259
0.609375,-0.0074366812601817,0.172716003049896,0.180120143012708
0.6103515625,-0.00460111214658724,0.173110331823983,0.177690407324216
0.611328125,-0.00481511736270758,0.173044610361635,0.177882228562781
0.6123046875,-0.005082623882858,0.169561372857204,0.174685207920028
0.61328125,-0.00246105998538387,0.171598738189985,0.174045803791477
0.6142578125,0.000160503912090253,0.17028430894303,0.170145438607318
0.615234375,0.00278206780956438,0.174687646920329,0.171871829754405
0.6162109375,0.00545713301106859,0.176067797629632,0.170593021497304
0.6171875,0.0111817725422876,0.177513669801282,0.166309013836015
0.6181640625,0.0169599133775367,0.179156706359976,0.162216827413291
0.619140625,0.0199024850991913,0.178236605887108,0.158316462229132
0.6201171875,0.0200094877072515,0.174819089845025,0.154799739522104
0.62109375,0.0202234929233718,0.171861624039376,0.151602718879351
0.6220703125,0.0205445007475523,0.172387395738158,0.151858480530771
0.623046875,0.0238080802933875,0.176264962016675,0.152433944246466
0.6240234375,0.024129088117568,0.17757939126363,0.153393050439292
0.625,0.0245035972457786,0.179156706359976,0.154671858696394
0.6259765625,0.024771103765929,0.18079974291867,0.156078547779205
0.626953125,0.0249851089820493,0.182442779477364,0.157485236862016
0.6279296875,0.0250921115901095,0.178039441500065,0.152945467549307
0.62890625,0.0250921115901095,0.182048450703277,0.156973713559176
0.6298828125,0.0220425372603947,0.179748199521106,0.157740998513437
0.630859375,0.0218285320442743,0.179879642445802,0.158060700577712
0.6318359375,0.0215075242200938,0.179419592209367,0.157932819752002
0.6328125,0.0240755868135379,0.1813912360798,0.157357356036306
0.6337890625,0.0236475763812972,0.177119341027196,0.153456990852147
0.634765625,0.0203839968354621,0.175410583006154,0.155055501173524
0.6357421875,0.0200629890112816,0.173636103522765,0.153584871677858
0.63671875,0.0197954824911311,0.174753368382677,0.154927620347814
0.6376953125,0.0167459081614163,0.170218587480682,0.153520931265003
0.638671875,0.0167459081614163,0.171927345501723,0.155183381999234
0.6396484375,0.0139103390478219,0.17113868795355,0.157229475210596
0.640625,0.0111817725422876,0.170875802104159,0.159723151311943
0.6416015625,0.00856020864481347,0.168312665072597,0.159723151311943
0.642578125,0.00898821907705414,0.169232765545466,0.160234674614784
0.6435546875,0.00647365778764019,0.164763706105818,0.158316462229132
0.64453125,0.00684816691585077,0.163580719783559,0.156717951907756
0.6455078125,0.010165247765716,0.162594897848342,0.152433944246466
0.646484375,0.0104327542858664,0.161609075913126,0.151155135989365
0.6474609375,0.0106467595019868,0.154642600904264,0.143993809749598
0.6484375,0.0135893312236414,0.158980217419216,0.14540049883241
0.6494140625,0.0105932581979567,0.151159363399833,0.140541027455425
0.650390625,0.0103792529818363,0.151487970711572,0.141116491171121
0.6513671875,0.00417310171434657,0.139526664564281,0.13529791360131
0.65234375,0.00379859258613598,0.135714819748111,0.131909071719992
0.6533203125,0.000428010432240673,0.128419737427511,0.128008706535833
0.654296875,-5.35013040300842E-05,0.123687792138472,0.123724698874544
0.6552734375,-0.00342408345792539,0.118692961000043,0.122062248140312
0.65625,-0.00668766300376052,0.113632408399266,0.120335856993226
0.6572265625,-0.00984423994153549,0.108769020185532,0.118545525433284
0.658203125,-0.0157828846888748,0.0983193076722394,0.114133636946285
0.6591796875,-0.0186719551064994,0.0972020428123276,0.115860028093371
0.66015625,-0.0243430933336883,0.0908270609645955,0.115156683551966
0.6611328125,-0.029853727648787,0.0851092937403409,0.115028802726256
0.662109375,-0.0323682889382009,0.0801144626019116,0.112471186212053
0.6630859375,-0.0318867772019302,0.0786028689679133,0.110489033413546
0.6640625,-0.034347837187314,0.0717021154213992,0.106013204513692
0.6650390625,-0.0367553958686678,0.068021713529925,0.104798336669446
0.666015625,-0.0393234584621119,0.0644070331007985,0.10371134965091
0.6669921875,-0.0390024506379314,0.0636840970149732,0.102688303045229
0.66796875,-0.0358993750041865,0.0655242979607103,0.101409494788127
0.6689453125,-0.0329568032825318,0.0668387272076654,0.0998109844667509
0.669921875,-0.0331173071946221,0.0646041974878418,0.0977009508425339
0.6708984375,-0.0334383150188026,0.0616467316821929,0.0950793939154764
0.671875,-0.0396979675903225,0.0550088639850698,0.0947596918512011
0.6728515625,-0.0372904089089687,0.0536287132757669,0.0909232670798974
0.673828125,-0.0378254219492695,0.0487653250620332,0.0865753190057532
0.6748046875,-0.0383604349895704,0.0464650738798618,0.0848489278586665
0.67578125,-0.0358993750041865,0.0469251241162961,0.0828667750601596
0.6767578125,-0.0362738841323971,0.0445591514717769,0.0808846222616527
0.677734375,-0.0365413906525475,0.0395643203333477,0.0761530317103782
0.6787109375,-0.0365948919565776,0.0350952608937004,0.0717411432233789
0.6796875,-0.0364878893485174,0.0312834160775307,0.0677768376263651
0.6806640625,-0.0362738841323971,0.0281945073471863,0.0644519361579019
0.681640625,-0.0358458737001564,0.031743466313965,0.0675850163877999
0.6826171875,-0.0353108606598556,0.0331236170232678,0.0684162417549157
0.68359375,-0.0347223463155246,0.0350952608937004,0.0698229308377271
0.6845703125,-0.040018975414503,0.0316120233892695,0.0716132623976688
0.685546875,-0.039430461070172,0.0342408818831796,0.0736593556090308
0.6865234375,-0.0360598789162767,0.0426532290636921,0.0787106482245806
0.6875,-0.0357388710920962,0.0420617359025623,0.0778154824446098
0.6884765625,-0.035578367180006,0.0467936811916006,0.0824191921701742
0.689453125,-0.0356318684840361,0.0479109460515124,0.0835701196015653
0.6904296875,-0.0358458737001564,0.0483052748255989,0.0841455833172608
0.69140625,-0.036220382828367,0.0477795031268169,0.0840177024915507
0.6923828125,-0.0367553958686678,0.0464650738798618,0.08325041753729
0.693359375,-0.0373974115170288,0.0444934300094292,0.0819076688673337
0.6943359375,-0.0380394271653898,0.0449534802458635,0.0829946558858697
0.6953125,-0.0386279415097208,0.0392357130216089,0.0778794228574648
0.6962890625,-0.0421055262716762,0.0335179457973543,0.0756415084075377
0.697265625,-0.0425335367039169,0.0309548087657919,0.0734675343704656
0.6982421875,-0.0427475419200373,0.0288517219706638,0.0715493219848137
0.69921875,-0.0428010432240673,0.0274058497990133,0.0702065733148575
0.7001953125,-0.0396979675903225,0.0268800781002312,0.066561969782119
0.701171875,-0.0393234584621119,0.0271429639496222,0.0664980293692639
0.7021484375,-0.038788445421811,0.0254342059285806,0.0642601149193367
0.703125,-0.0410890014951046,0.0245141054557121,0.065602863589293
0.7041015625,-0.0433360562643682,0.0241197766816256,0.0674571355620898
0.705078125,-0.0426405393119771,0.0270772424872745,0.069695050012017
0.7060546875,-0.0419985236636161,0.0301004297552712,0.0721247857005093
0.70703125,-0.0415170119273453,0.0300347082929234,0.0715493219848137
0.7080078125,-0.0411960041031648,0.0324664023997903,0.0736593556090308
0.708984375,-0.0440315732167593,0.031217694615183,0.0752578659304073
0.7099609375,-0.0441385758248194,0.0320720736257038,0.0762169721232332
0.7109375,-0.0444595836489999,0.0348980965066572,0.0793500523531312
0.7119140625,-0.0449945966893008,0.0308890873034442,0.0758333296461029
0.712890625,-0.0456366123376618,0.0289174434330116,0.0745545213890016
0.7138671875,-0.0492747010117075,0.0204393747901514,0.069695050012017
0.71484375,-0.0500772205721588,0.0202422104031081,0.0703344541405676
0.7158203125,-0.0507727375245499,0.0199136030913693,0.0706541562048429
0.716796875,-0.0513612518688808,0.0167589728986772,0.0680965396906404
0.7177734375,-0.0459041188578122,0.0199136030913693,0.0657946848278582
0.71875,-0.0431220510482478,0.0207679821018901,0.0639404128550614
0.7197265625,-0.0431220510482478,0.0167589728986772,0.0598482264323375
0.720703125,-0.045743614945722,0.0136700641683328,0.0594006435423521
0.7216796875,-0.0481511736270758,0.00874095449225123,0.0569069674410047
0.72265625,-0.0504517297003694,0.00768941109468717,0.0581218352852508
0.7236328125,-0.0496492101399181,0.0103839910509451,0.0600400476709027
0.724609375,-0.0488466905794669,0.013604342705985,0.062469783359395
0.7255859375,-0.045155100601391,0.0200450460160648,0.0652192211121627
0.7265625,-0.0474021553706546,0.0205708177148469,0.0679686588649303
0.7275390625,-0.0498632153560384,0.0177447948338935,0.0675850163877999
0.728515625,-0.0495422075318579,0.0201107674784126,0.069695050012017
0.7294921875,-0.0524847792535126,0.0157074295011131,0.0682244205163506
0.73046875,-0.0497562127479783,0.0132100139318985,0.0629813066622355
0.7314453125,-0.0444060823449699,0.0124870778460732,0.0568430270281496
0.732421875,-0.0421055262716762,0.0107125983626838,0.0528147810182807
0.7333984375,-0.0429080458321275,0.00210308679512812,0.0450779910628183
0.734375,-0.0438175680006389,-0.00414045212790848,0.0396430559701381
0.7353515625,-0.0505052310043995,-0.0166932514363294,0.0338244784003275
0.736328125,-0.0541968209824753,-0.0292460507447504,0.024936761013474
0.7373046875,-0.0547853353268062,-0.0355553111301347,0.0191821238565184
0.73828125,-0.0580489148726413,-0.0441648226976904,0.0138750695895483
0.7392578125,-0.0610984892023561,-0.0460050236434275,0.0150899374337945
0.740234375,-0.0609379852902659,-0.049619704072554,0.0112535126624908
0.7412109375,-0.0634525465796798,-0.0521171196417686,0.0113174530753459
0.7421875,-0.0628105309313188,-0.050408361620727,0.0123404996810269
0.7431640625,-0.0590654396492129,-0.0477137816644691,0.0113174530753459
0.744140625,-0.0581559174807015,-0.0500797543089882,0.00805649201973774
0.7451171875,-0.0543038235905354,-0.046136466568123,0.0081204324325928
0.74609375,-0.0563903744477087,-0.0450192017082112,0.0113813934882009
0.7470703125,-0.052752285773663,-0.0324006809374425,0.0203330512879095
0.748046875,-0.0493282023157376,-0.0145901646412013,0.0347835845931534
0.7490234375,-0.0373974115170288,0.0082151827934692,0.0455895143656588
0.75,-0.0257341272384705,0.0268800781002312,0.0526229597797156
0.7509765625,-0.011449279062438,0.0412730783543893,0.0527508406054257
0.751953125,0.00256806259344404,0.0486338821373377,0.0460370972556442
0.7529296875,0.0134823286155812,0.0460050236434275,0.0324817297303712
0.75390625,0.0213470203080036,0.0424560646766488,0.0211003362421703
0.7548828125,0.0291582106963959,0.0412073568920415,0.0120207976167515
0.755859375,0.0429080458321275,0.0513941835559433,0.00850407490972317
0.7568359375,0.0567648835759193,0.0647356404125373,0.00799255160688268
0.7578125,0.0796099403967652,0.0903670107281612,0.0108059297725054
0.7587890625,0.102722503737762,0.114026737173353,0.0113174530753459
0.759765625,0.134876787459842,0.150567870238704,0.0156654011494901
0.7607421875,0.167405580310133,0.194338364162307,0.0269828542248359
0.76171875,0.19725930795892,0.254210616361111,0.0569709078538597
0.7626953125,0.227327040823828,0.330053183910419,0.102688303045229
0.763671875,0.26055135062651,0.421668902423187,0.161129840394755
0.7646484375,0.290886590011568,0.519922488633079,0.22903455884683
0.765625,0.318279257674971,0.624419613766007,0.306146696750034
0.7666015625,0.342675852312689,0.728851017436587,0.386200093644571
0.767578125,0.363862368708602,0.838671581019684,0.474757565448831
0.7685546875,0.38777745161005,0.956312998622163,0.568558151107206
0.76953125,0.414260597104942,1.07559745278334,0.6613356901599
0.7705078125,0.443311805193277,1.20224271072746,0.758908760176724
0.771484375,0.477927148900742,1.32724493211288,0.849256563540926
0.7724609375,0.509332414366401,1.45073555986431,0.941330758052214
0.7734375,0.540577175919971,1.57284603690644,1.03231796554497
0.7744140625,0.56577629011814,1.69107894767005,1.12528732583623
0.775390625,0.579312120037751,1.80576289946688,1.22650499938579
0.7763671875,0.575353023539525,1.91748938545806,1.34210926582774
0.77734375,0.559837645370801,2.02665273441768,1.46679307089511
0.7783203125,0.532926489443668,2.09283424700187,1.55989031201208
0.779296875,0.506282840036686,2.10755585456776,1.6012597591293
0.7802734375,0.48290277017554,2.07692965311371,1.59403449247668
0.78125,0.456954637720949,2.012916948787,1.55592600641506
0.7822265625,0.425442369647229,1.93582567345308,1.51040043246226
0.783203125,0.388312464650351,1.83395740681406,1.44562879424008
0.7841796875,0.354232133983187,1.71855051893141,1.36429658908845
0.78515625,0.314373662480775,1.58046972653878,1.26608411494307
0.7861328125,0.271572619256707,1.43384514404094,1.16224488446645
0.787109375,0.22861107212055,1.28984942003701,1.06128297256831
0.7880859375,0.179550376324962,1.13343233964936,0.953863078971806
0.7890625,0.130222174009225,0.972874807133797,0.842606760604
0.7900390625,0.0835155355909614,0.807848215178587,0.724380937234991
0.791015625,0.0334918163228327,0.644136052470333,0.610630942765837
0.7919921875,-0.00513612518688808,0.519725324246036,0.524822908714344
0.79296875,-0.0381999310774801,0.43474747343039,0.472903293476034
0.7939453125,-0.0597074552975739,0.389531107335136,0.449245340719662
0.794921875,-0.0754903399864488,0.361007992676211,0.436521198561504
0.7958984375,-0.0912732246753236,0.332090549243199,0.423413413926217
0.796875,-0.101117464616859,0.306262014540532,0.407364370299596
0.7978515625,-0.110747699342274,0.281024972998994,0.391826849975816
0.798828125,-0.120110427547539,0.25394773051172,0.374051415202109
0.7998046875,-0.126263077510999,0.231142383077049,0.357362967446938
0.80078125,-0.134930288763872,0.206956884933076,0.341889387536014
0.8017578125,-0.134555779635662,0.196047122183349,0.330571934460668
0.802734375,-0.13969190482255,0.183691487261971,0.323410608220901
0.8037109375,-0.141671453071663,0.178499491736499,0.320213587578148
0.8046875,-0.143597500016746,0.182968551176146,0.326543688450799
0.8056640625,-0.148359116075423,0.18198272924093,0.330380113222102
0.806640625,-0.150231661716476,0.17817088442476,0.328397960423596
0.8076171875,-0.15231821257365,0.167984057760858,0.320277527991003
0.80859375,-0.151676196925289,0.153985386280787,0.305699113860049
0.8095703125,-0.148466118683484,0.141761194284105,0.290225533949124
0.810546875,-0.142580975240174,0.131048595921421,0.273664967019663
0.8115234375,-0.1399594113427,0.118955846849434,0.258894731650144
0.8125,-0.134716283547752,0.111266435754747,0.245978768253421
0.8134765625,-0.129687160968924,0.1023940383378,0.232039758251018
0.814453125,-0.127707612719811,0.0926015404479848,0.220338662698542
0.8154296875,-0.122892495357103,0.0852407366650364,0.208126043843225
0.81640625,-0.118023876690366,0.0748567456140914,0.19290822558372
0.8173828125,-0.110105683693913,0.0706505720238351,0.180759547141259
0.818359375,-0.104916057202995,0.0583606585648052,0.163303814431827
0.8193359375,-0.0935737807486172,0.0559289644579383,0.149492685255134
0.8203125,-0.0848530681917135,0.0517885123300298,0.136640662271266
0.8212890625,-0.078807420836314,0.0518542337923776,0.130630263462891
0.822265625,-0.072440765656734,0.0561918503073293,0.128584170251529
0.8232421875,-0.0687491756786582,0.058689265876544,0.127433242820137
0.82421875,-0.0620080113708676,0.0649985262619283,0.127049600343007
0.8251953125,-0.061044987898326,0.0690075354651413,0.130054799747195
0.826171875,-0.05719289400816,0.0789971977419998,0.136129138968426
0.8271484375,-0.0563368731436786,0.0799172982148684,0.136257019794136
0.828125,-0.0498097140520084,0.0920757687492028,0.141883776125381
0.8291015625,-0.0493817036197677,0.0974649286617186,0.146807187915221
0.830078125,-0.0433895575683983,0.104694289519971,0.148085996172322
0.8310546875,-0.0406074897588339,0.104825732444667,0.145464439245265
0.83203125,-0.0380929284694199,0.103839910509451,0.141883776125381
0.8330078125,-0.0387349441177809,0.0988450793710214,0.137535828051237
0.833984375,-0.0395374636782322,0.0958876135653725,0.135361854014165
0.8349609375,-0.0403934845427136,0.0894469102552927,0.129799038095775
0.8359375,-0.0442455784328796,0.0797858552901729,0.124044400938819
0.8369140625,-0.0450480979933309,0.0732794305177453,0.118289763781864
0.837890625,-0.0456901136416919,0.0671673345194042,0.112854828689183
0.8388671875,-0.043229053656308,0.0588864302635872,0.102112839329533
0.83984375,-0.0434430588724283,0.0544830922862877,0.0978927720810991
0.8408203125,-0.0403934845427136,0.0511312977065523,0.091562671208448
0.841796875,-0.0371834063009085,0.0518542337923776,0.0890050546942455
0.8427734375,-0.0395374636782322,0.0477137816644691,0.0872147231343038
0.84375,-0.038788445421811,0.0531686630393327,0.0919463136855784
0.8447265625,-0.0409284975830144,0.0533658274263759,0.0942481685483605
0.845703125,-0.040072476718533,0.0596750878117603,0.0997470440538958
0.8466796875,-0.0363273854364272,0.0659843481971446,0.102304660568098
0.84765625,-0.0327427980664115,0.0718992798084424,0.104670455843736
0.8486328125,-0.0293722159125162,0.0772227182586105,0.106588668229387
0.849609375,-0.0291047093923658,0.0816917776982577,0.110808735477821
0.8505859375,-0.0291047093923658,0.0851750152026887,0.11432545818485
0.8515625,-0.0264296441908616,0.0877381522342511,0.11419757735914
0.8525390625,-0.0269111559271323,0.0863580015249482,0.113302411579169
0.853515625,-0.0275531715754933,0.0812974489241712,0.108826582679315
0.8544921875,-0.0283556911359446,0.0785371475055656,0.106844429880808
0.85546875,-0.0320472811140204,0.0695990286262711,0.101665256439548
0.8564453125,-0.0299072289528171,0.0694018642392278,0.0992994611639104
0.857421875,-0.0276066728795234,0.0665758413582744,0.0941842281355055
0.8583984375,-0.0251991141981696,0.0642098687137553,0.0893886971713759
0.859375,-0.0225240489966654,0.0626325536174092,0.0851686299229418
0.8603515625,-0.0196349785790409,0.0618438960692361,0.0815240263902033
0.861328125,-0.016531902945296,0.0678902706052295,0.0844652853815362
0.8623046875,-0.0161573938170854,0.0718992798084424,0.0880459485014196
0.86328125,-0.0155688794727545,0.0737394807541795,0.0892608163456658
0.8642578125,-0.0177624329379879,0.0761711748610464,0.0939284664840853
0.865234375,-0.0199559864032214,0.0818232206229532,0.101793137265258
0.8662109375,-0.0221495398684548,0.0847149649662544,0.106844429880808
0.8671875,-0.0215075242200938,0.0874095449225123,0.10889052309217
0.8681640625,-0.0180834407621685,0.0926015404479848,0.110680854652111
0.869140625,-0.0177624329379879,0.0942445770066787,0.112023603322068
0.8701171875,-0.0177089316339579,0.0950989560171995,0.112790888276328
0.87109375,-0.0148733625203634,0.0980564218228484,0.112918769102038
0.8720703125,-0.0123052999269194,0.100159508617976,0.112471186212053
0.873046875,-0.0157293833848447,0.0956904491783292,0.111448139606372
0.8740234375,-0.0163713990332058,0.0935873623832011,0.109977510110706
0.875,-0.0170669159855969,0.0881324810083376,0.105245919559431
0.8759765625,-0.0148733625203634,0.0884610883200764,0.103327707173779
0.876953125,-0.0125193051430397,0.0859636727508617,0.0984682357967946
0.8779296875,-0.0130543181833405,0.0837948644933858,0.096805785062563
0.87890625,-0.013375326007521,0.0791943621290431,0.092585717814129
0.8798828125,-0.0134823286155812,0.0782742616561745,0.0917544924470132
0.880859375,-0.013375326007521,0.0780770972691313,0.0914347903827378
0.8818359375,-0.010165247765716,0.0815603347735622,0.0917544924470132
0.8828125,-0.0126798090551299,0.0799172982148684,0.092585717814129
0.8837890625,-0.012091294710799,0.0817574991606055,0.0938645260712302
0.884765625,-0.00850670734078338,0.0898412390293792,0.0983403549710845
0.8857421875,-0.010807263414077,0.0951646774795472,0.106013204513692
0.88671875,-0.0102187490697461,0.100488115929715,0.110680854652111
0.8876953125,-0.00968373602944524,0.105482947068145,0.115220623964821
0.888671875,-0.00647365778764019,0.112975193775788,0.119440691213255
0.8896484375,-0.0033705821538953,0.116918481516654,0.120271916580371
0.890625,-0.00342408345792539,0.123096298977342,0.126538077040167
0.8916015625,-0.00363808867404572,0.125659436008905,0.129287514792934
0.892578125,-0.00401259780225631,0.124607892611341,0.128648110664384
0.8935546875,-0.00160503912090253,0.123030577514995,0.124619864654515
0.89453125,-0.00219355346523345,0.118101467838913,0.120271916580371
0.8955078125,-0.00278206780956438,0.115932659581437,0.118673406258994
0.896484375,-0.000428010432240673,0.113698129861614,0.114133636946285
0.8974609375,-0.000909522168511431,0.111726485991181,0.112599067037763
0.8984375,-0.00123052999269194,0.110083449432487,0.111320258780662
0.8994140625,-0.00144453520881227,0.111923650378224,0.113366351992024
0.900390625,0.00149803651284236,0.114421065947439,0.112918769102038
0.9013671875,0.00460111214658724,0.117575696140131,0.112918769102038
0.90234375,0.00497562127479783,0.118430075150652,0.113430292404879
0.9033203125,0.0054036317070385,0.119744504397607,0.114389398597705
0.904296875,0.00593864474733934,0.121584705343344,0.115604266441951
0.9052734375,0.00652715909167027,0.126513815019426,0.12001615492895
0.90625,0.00411960041031648,0.122701970203256,0.118609465846139
0.9072265625,0.00454761084255715,0.127499636954642,0.122957413920283
0.908203125,0.00781119038839229,0.134991883662286,0.127113540755862
0.9091796875,0.00802519560451263,0.136109148522198,0.128072646948688
0.91015625,0.00802519560451263,0.13663492022098,0.128584170251529
0.9111328125,0.010807263414077,0.139526664564281,0.128648110664384
0.912109375,0.0105397568939266,0.141761194284105,0.131205727178586
0.9130859375,0.010165247765716,0.143535673767494,0.133379701215658
0.9140625,0.00968373602944524,0.144915824476797,0.135233973188455
0.9150390625,0.00914872298914439,0.14892483368001,0.139773742501164
0.916015625,0.0116097829745283,0.152868121420875,0.141308312409686
0.9169921875,0.0111817725422876,0.153985386280787,0.142842882318207
0.91796875,0.0137498351357316,0.158323002795738,0.144569273465294
0.9189453125,0.0135893312236414,0.154248272130178,0.14073284869399
0.919921875,0.0164249003372358,0.159505989117998,0.143034703556772
0.9208984375,0.0136428325276715,0.15944026765565,0.145848081722395
0.921875,0.0197419811871011,0.171664459652332,0.151922420943626
0.9228515625,0.0200629890112816,0.172650281587549,0.152561825072177
0.923828125,0.0204909994435222,0.176922176640153,0.156462190256335
0.9248046875,0.0239150829014476,0.181522679004495,0.157613117687726
0.92578125,0.0243430933336883,0.186188902831186,0.16183318493616
0.9267578125,0.024771103765929,0.190855126657876,0.166053252184595
0.927734375,0.0250921115901095,0.198150208978477,0.173086697598651
0.9287109375,0.0252526155021997,0.202224939644038,0.176923122369955
0.9296875,0.0253596181102599,0.205839620073164,0.180503785489838
0.9306640625,0.0252526155021997,0.20597106299786,0.180759547141259
0.931640625,0.0250386102860794,0.205642455686121,0.180567725902694
0.9326171875,0.0276601741835535,0.207745542481249,0.180056202599853
0.93359375,0.0302282367769976,0.209454300502291,0.179288917645592
0.9345703125,0.0327427980664115,0.210900172673941,0.178201930627056
0.935546875,0.0323147876341708,0.209322857577595,0.17698706278281
0.9365234375,0.0319402785059603,0.207745542481249,0.175836135351419
0.9375,0.0345618424034344,0.209257136115247,0.174685207920028
0.9384765625,0.0344013384913441,0.208139871255336,0.173790042140057
0.939453125,0.0372369076049386,0.213331866780808,0.176027956589984
0.9404296875,0.0372904089089687,0.213068980931417,0.175772194938564
0.94140625,0.0403934845427136,0.219115355467411,0.178713453929897
0.9423828125,0.040660991062864,0.222730035896537,0.18203835539836
0.943359375,0.0439780719127292,0.229696510905399,0.185682958931098
0.9443359375,0.0472951527625944,0.231010940152354,0.183700806132592
0.9453125,0.0535013040300842,0.241263488278603,0.18772905214246
0.9462890625,0.0538758131582948,0.242775081912602,0.188879979573851
0.947265625,0.0541433196784452,0.249938721308507,0.195849484575053
0.9482421875,0.0543038235905354,0.256905196317369,0.20262716833769
0.94921875,0.0572998966162201,0.260585598208843,0.20326657246624
0.9501953125,0.0572463953121901,0.263805949863883,0.206527533521848
0.951171875,0.0600284631217544,0.266566251282489,0.206591473934703
0.9521484375,0.0656461000449133,0.274847155538306,0.209213030861761
0.953125,0.0653250922207328,0.276818799408738,0.211514885724543
0.9541015625,0.0678931548141768,0.287334233384379,0.219443496918571
0.955078125,0.0646295752683417,0.288911548480725,0.224302968295556
0.9560546875,0.0643085674441612,0.293380607920372,0.229098499259685
0.95703125,0.0669836326456654,0.297981110284715,0.231016711645337
0.9580078125,0.0668231287335751,0.302778777036101,0.235940123435177
0.958984375,0.066769627429545,0.302055840950276,0.235300719306626
0.9599609375,0.0697657004552298,0.310468188130788,0.240735654399306
0.9609375,0.0698727030632899,0.313491375398785,0.243612972977784
0.9619140625,0.0759718517227195,0.319800635784169,0.243804794216349
0.962890625,0.0791819299645246,0.323481037675643,0.24431631751919
0.9638671875,0.0824455095103597,0.327490046878856,0.24508360247345
0.96484375,0.0857090890561948,0.331696220469112,0.245978768253421
0.9658203125,0.0889191672979999,0.33879413840267,0.24987913343758
0.966796875,0.0920757442357749,0.342934590530578,0.250838239630406
0.9677734375,0.0951788198695197,0.343986133928142,0.248792146419044
0.96875,0.0981213915911744,0.350558280162918,0.252436749951783
0.9697265625,0.0981213915911744,0.347995143131355,0.24987913343758
0.970703125,0.0979608876790841,0.348060864593703,0.250070954676145
0.9716796875,0.0977468824629638,0.347666535819617,0.24987913343758
0.97265625,0.100421947664468,0.352858531345089,0.252436749951783
0.9736328125,0.103043511561942,0.354830175215522,0.251797345823232
0.974609375,0.099779932016107,0.35371291035561,0.253907379447449
0.9755859375,0.102454997217611,0.355421668376651,0.253012213667478
0.9765625,0.105130062419115,0.363111079471339,0.257935625457318
0.9775390625,0.105023059811055,0.365082723341771,0.260045659081535
0.978515625,0.104969558507025,0.367251531599247,0.262347513944317
0.9794921875,0.104969558507025,0.372772134436458,0.267782449036997
0.98046875,0.102187490697461,0.375598157317412,0.273409205368243
0.9814453125,0.0994589241919265,0.378818508972452,0.279355663763763
0.982421875,0.102669002433732,0.385324933744879,0.282616624819372
0.9833984375,0.105879080675537,0.394985988709999,0.289074606517733
0.984375,0.109142660221372,0.401886742256513,0.292719210050471
0.9853515625,0.112352738463177,0.405895751459726,0.293550435417587
0.986328125,0.115455814096922,0.415688249349542,0.300264178767369
0.9873046875,0.112673746287357,0.41660834982241,0.303908782300107
0.98828125,0.112780748895417,0.420223030251537,0.30748944541999
0.9892578125,0.112727247591387,0.426466569174573,0.313755605879786
0.990234375,0.112566743679297,0.42948975644257,0.316888686109684
0.9912109375,0.115295310184831,0.435076080742129,0.319766004688162
0.9921875,0.117970375386336,0.440399519192297,0.322451502028075
0.9931640625,0.117702868866185,0.442568327449773,0.324881237716567
0.994140625,0.11443928932035,0.438690761171255,0.324241833588017
0.9951171875,0.111229211078545,0.43474747343039,0.323474548633756
0.99609375,0.113957777584079,0.439610861644124,0.325648522670828
0.9970703125,0.113797273671989,0.441713948439252,0.327886437120755
0.998046875,0.113743772367959,0.441056733815774,0.32731097340506
0.9990234375,0.110854701950334,0.440662405041688,0.329804649506407
1,0.110961704558395,0.443488427922641,0.332490146846319
1.0009765625,0.10823313805286,0.437836382160735,0.329612828267842
1.001953125,0.108500644573011,0.438362153859517,0.329868589919262
1.0029296875,0.108821652397191,0.433235879796392,0.324433654826582
1.00390625,0.109089158917342,0.434090258806913,0.325009118542277
1.0048828125,0.103525023298213,0.42626940478753,0.322707263679495
1.005859375,0.100796456792679,0.421340295111448,0.320469349229568
1.0068359375,0.100956960704769,0.419171486853973,0.318231434779641
1.0078125,0.0981213915911744,0.411022025522851,0.312924380512671
1.0087890625,0.0951788198695197,0.40550142268564,0.310366763998468
1.009765625,0.0950183159574295,0.399717933999037,0.304676067254368
1.0107421875,0.0919152403236846,0.393671559463044,0.301734808263035
1.01171875,0.0945903055251888,0.390254043420961,0.295724409454659
1.0126953125,0.0913267259793537,0.383747618648533,0.292399507986196
1.013671875,0.0881166477375486,0.377044029489062,0.288946725692023
1.0146484375,0.0849065694957436,0.373232184672893,0.288371261976327
1.015625,0.0846925642796232,0.369486061319071,0.284790598856444
1.0166015625,0.0786469169242237,0.359956449278646,0.281273876149415
1.017578125,0.0785934156201937,0.356473211774216,0.277885034268097
1.0185546875,0.0698192017592598,0.344380462702229,0.274624073212489
1.01953125,0.0669836326456654,0.33557378674763,0.268549733991258
1.0205078125,0.0613124944184765,0.324006809374425,0.262667216008592
1.021484375,0.0586374292169723,0.318617649461909,0.259917778255825
1.0224609375,0.0530732935978435,0.307510722325139,0.254418902750289
1.0234375,0.053394301422024,0.305341914067663,0.251925226648942
1.0244140625,0.0507192362205198,0.300281361466886,0.249559431373305
1.025390625,0.0509867427406702,0.29811255320941,0.247193636097668
1.0263671875,0.0482046749311058,0.290028813340637,0.241822641417842
1.02734375,0.0424265340958568,0.28174790908482,0.239328965316495
1.0283203125,0.0365948919565776,0.273269840441959,0.236707408389437
1.029296875,0.0306027459052081,0.264528885949708,0.233894030223815
1.0302734375,0.0304422419931179,0.258482511413715,0.228075452654004
1.03125,0.0272321637513128,0.249281506685029,0.222001113432773
1.0322265625,0.0240220855095078,0.236991593226,0.212921574807355
1.033203125,0.0237545789893574,0.230419446991224,0.206655414347559
1.0341796875,0.0205445007475523,0.217932369145151,0.197384054483575
1.03515625,0.0143918507840926,0.205445291299078,0.191053953610924
1.0361328125,0.0112887751503478,0.19893886652665,0.187665111729605
1.037109375,0.00829270212466305,0.189672140335617,0.181398951269809
1.0380859375,0.00535013040300842,0.180668299993975,0.175324612048578
1.0390625,0.00545713301106859,0.168904158233727,0.163431695257537
1.0400390625,0.00267506520150421,0.157337180860522,0.154671858696394
1.041015625,-0.00294257172165463,0.146033089336709,0.148981161952293
1.0419921875,-0.00850670734078338,0.134926162199938,0.143418346033903
1.04296875,-0.0111282712382575,0.126776700868817,0.137919470528368
1.0439453125,-0.0108607647181071,0.118692961000043,0.12960721685721
1.044921875,-0.0135358299196113,0.110609221131269,0.124172281764529
1.0458984375,-0.013375326007521,0.105351504143449,0.118737346671849
1.046875,-0.0161573938170854,0.0970048784252843,0.113174530753459
1.0478515625,-0.0190999655387401,0.0884610883200764,0.107547774422213
1.048828125,-0.0220960385644248,0.0855693439767752,0.107611714835068
1.0498046875,-0.022256542476515,0.0765655036351329,0.0987879378610699
1.05078125,-0.0224705476926354,0.0732137090553975,0.095718798044027
1.0517578125,-0.0227380542127858,0.0668387272076654,0.0895805184099411
1.052734375,-0.0230590620369663,0.0661815125841879,0.0891968759328107
1.0537109375,-0.0262691402787713,0.0625668321550614,0.0888132334556803
1.0546875,-0.0294792185205764,0.0619096175315839,0.0913708499698828
1.0556640625,-0.0296397224326666,0.0613181243704541,0.0909872074927524
1.056640625,-0.0268576546231023,0.0638812614020165,0.0907314458413322
1.0576171875,-0.0298002263447569,0.0578348868660232,0.0875983656114342
1.05859375,-0.0297467250407268,0.0578348868660232,0.0875983656114342
1.0595703125,-0.0325287928502912,0.0550745854474175,0.0876623060242892
1.060546875,-0.0323147876341708,0.055468914221504,0.0877901868499993
1.0615234375,-0.0379324245573297,0.0531029415769849,0.0909872074927524
1.0625,-0.0405539884548038,0.0508026903948135,0.0913708499698828
1.0634765625,-0.0402864819346534,0.0485024392126422,0.0888132334556803
1.064453125,-0.040018975414503,0.0462021880304708,0.0861916765286228
1.0654296875,-0.0398049701983826,0.0379212837746538,0.0776876016188996
1.06640625,-0.0396979675903225,0.0324006809374425,0.0720608452876542
1.0673828125,-0.0396444662862924,0.026682913713188,0.0663062081306987
1.068359375,-0.0396444662862924,0.0237254479075391,0.0633649491393659
1.0693359375,-0.0426940406160072,0.0205708177148469,0.0632370683136558
1.0703125,-0.0429080458321275,0.0172190231351114,0.0601039880837578
1.0712890625,-0.0460646227699025,0.0137357856306805,0.0598482264323375
1.072265625,-0.046385630594083,0.0101868266639018,0.0565872653767294
1.0732421875,-0.0466531371142334,0.00663786769712311,0.0533263043211212
1.07421875,-0.0439780719127292,0.0119613061472912,0.0559478612481788
1.0751953125,-0.041303006711225,0.0144587217165058,0.0556920995967585
1.076171875,-0.0385209389016606,0.0170875802104159,0.0555642187710484
1.0771484375,-0.0385744402056907,0.0199136030913693,0.0584415373495261
1.078125,-0.0444060823449699,0.0170875802104159,0.0615106771665691
1.0791015625,-0.0472416514585643,0.0174161875221547,0.0645798169836121
1.080078125,-0.047027646242444,0.0207679821018901,0.0677768376263651
1.0810546875,-0.0468136410263237,0.0242512196063211,0.0710377986819733
1.08203125,-0.0465461345061732,0.0278001785730998,0.0742987597375814
1.0830078125,-0.0462786279860228,0.0283916717342296,0.0746184618018567
1.083984375,-0.0460111214658724,0.0289174434330116,0.0748742234532769
1.0849609375,-0.045797116249752,0.0263543064014492,0.0721247857005093
1.0859375,-0.0485791840593164,0.0236597264451913,0.0721887261133644
1.0869140625,-0.0514147531729109,0.0236597264451913,0.0750660446918421
1.087890625,-0.0514147531729109,0.023462562058148,0.0748742234532769
1.0888671875,-0.0515217557809711,0.0230682332840615,0.0746184618018567
1.08984375,-0.0516822596930613,0.0196507172419783,0.0712935603333935
1.0908203125,-0.0518962649091816,0.0132100139318985,0.0650913402864525
1.091796875,-0.0521637714293321,0.0125527993084209,0.0647076978093222
1.0927734375,-0.0524312779494825,0.0119613061472912,0.0643879957450469
1.09375,-0.0526452831656028,0.0115012559108569,0.0641322340936266
1.0947265625,-0.0558018601033778,0.00525771698782029,0.0610630942765837
1.095703125,-0.0530197922938134,0.00512627406312478,0.0581857756981059
1.0966796875,-0.050184223180219,0.00230025118217138,0.0524950789540054
1.09765625,-0.0472416514585643,-0.000394328774086522,0.04686832262276
1.0986328125,-0.0471881501545342,-0.00578348868660232,0.0414333875300798
1.099609375,-0.047027646242444,-0.00808373986877369,0.0389397114287324
1.1005859375,-0.0497562127479783,-0.0132757353942462,0.036446035327385
1.1015625,-0.0495422075318579,-0.0184677309197188,0.0310111002347048
1.1025390625,-0.0492747010117075,-0.0208337035642379,0.0284534837205023
1.103515625,-0.0490071944915571,-0.0232653976711048,0.0257679863805898
1.1044921875,-0.0517357609970914,-0.0230025118217138,0.0287731857847776
1.10546875,-0.0515752570850011,-0.0228710688970183,0.0287092453719226
1.1064453125,-0.0544108261985956,-0.0172190231351114,0.0372133202816458
1.107421875,-0.0515217557809711,-0.0116984202979001,0.0398348772087033
1.1083984375,-0.0486326853633465,-0.0063749818477321,0.0422646128971956
1.109375,-0.0458506175537821,-0.00118298632225956,0.0446943485856879
1.1103515625,-0.048953693187527,-0.00190592240808485,0.0470601438613252
1.111328125,-0.052110270125302,0.000328607311738768,0.0524950789540054
1.1123046875,-0.055320348367107,-0.000262885849391014,0.0550526954682079
1.11328125,-0.0555343535832274,0.00216880825747587,0.0577381928081205
1.1142578125,-0.0557483587993477,-0.000985821935216304,0.0547329934039326
1.115234375,-0.0529662909897833,-0.00105154339756406,0.0519196152383099
1.1162109375,-0.0530197922938134,-0.00381184481616971,0.0492341178983973
1.1171875,-0.0530197922938134,-0.00630926038538435,0.0467404417970499
1.1181640625,-0.0529662909897833,-0.00867523302990348,0.0443107061085576
1.119140625,-0.0528592883817232,-0.0108440412873793,0.0420088512457754
1.1201171875,-0.0526452831656028,-0.0130128495448552,0.0396430559701381
1.12109375,-0.0524312779494825,-0.0152473792646788,0.0372133202816458
1.1220703125,-0.0522172727333622,-0.0204393747901514,0.0317783851889655
1.123046875,-0.0520032675172418,-0.0199793245537171,0.0320341468403858
1.1240234375,-0.0517892623011215,-0.022673904509975,0.029156828261908
1.125,-0.0545713301106859,-0.0226081830476272,0.0319702064275307
1.1259765625,-0.0545178288066558,-0.0228710688970183,0.0316505043632554
1.126953125,-0.0544643275026257,-0.0203736533278036,0.0341441804646028
1.1279296875,-0.0545713301106859,-0.0210308679512812,0.0335687167489073
1.12890625,-0.054678332718746,-0.0188620596938053,0.0358705716116895
1.1298828125,-0.0548388366308363,-0.0166932514363294,0.0381724264744717
1.130859375,-0.0550528418469566,-0.0145244431788535,0.0405382217501089
1.1318359375,-0.055320348367107,-0.0151816578023311,0.0400906388601235
1.1328125,-0.0555343535832274,-0.0127499636954642,0.0427761362000361
1.1337890625,-0.0556948574953176,-0.0100553837392063,0.0456534547785139
1.134765625,-0.0558553614074079,-0.00716363939590514,0.0487225945955568
1.1357421875,-0.0529662909897833,-0.00690075354651413,0.0461010376684993
1.13671875,-0.0500772205721588,-0.00348323750443094,0.0466125609713398
1.1376953125,-0.0499702179640986,-0.00571776722425456,0.0442467656957025
1.138671875,-0.0498632153560384,-0.00492910967608152,0.0449501102371082
1.1396484375,-0.0525917818615727,-0.00998966227685855,0.042648255374326
1.140625,-0.0523777766454524,-0.00913528326633775,0.0432237190900215
1.1416015625,-0.0492211997076774,-0.00558632429955906,0.043671301980007
1.142578125,-0.0490071944915571,-0.00506055260077703,0.0439910040442823
1.1435546875,-0.0488466905794669,-0.00775513255703493,0.0411136854658045
1.14453125,-0.0516822596930613,-0.00775513255703493,0.0439270636314272
1.1455078125,-0.0515752570850011,-0.00801801840642594,0.0435434211542968
1.146484375,-0.0516287583890312,-0.00565204576190681,0.0459731568427892
1.1474609375,-0.0487396879714067,-0.00630926038538435,0.0423924937229057
1.1484375,-0.0489001918834969,-0.00716363939590514,0.0416891491815001
1.1494140625,-0.0461716253779626,-0.00512627406312478,0.0410497450529494
1.150390625,-0.0492747010117075,-0.00598065307364558,0.0433515999157317
1.1513671875,-0.0465996358102033,-0.000788657548173043,0.045781335604224
1.15234375,-0.0467601397222936,-0.00420617359025623,0.0425843149614709
1.1533203125,-0.0469741449384139,-0.00157731509634609,0.0453976931270936
1.154296875,-0.0470811475464741,-0.00151159363399833,0.0455255739528037
1.1552734375,-0.0471346488505042,-0.00124870778460732,0.0459092164299341
1.15625,-0.0470811475464741,-0.000657214623477536,0.0464207397327746
1.1572265625,-0.047027646242444,6.57214623477536E-05,0.0471240842741803
1.158203125,-0.0468671423303537,-0.00197164387043261,0.0448861698242531
1.1591796875,-0.0466531371142334,0.00190592240808485,0.0485307733569916
1.16015625,-0.0493817036197677,-0.000197164387043261,0.0492341178983973
1.1611328125,-0.052110270125302,-0.00236597264451913,0.0497456412012378
1.162109375,-0.0490071944915571,0.00400900920321297,0.0530066022568459
1.1630859375,-0.0488466905794669,0.00427189505260398,0.053070542669701
1.1640625,-0.045797116249752,0.00420617359025623,0.050001402852658
1.1650390625,-0.045743614945722,0.00394328774086522,0.0496817007883827
1.166015625,-0.045797116249752,0.00335179457973543,0.0491062370726872
1.1669921875,-0.0429615471361576,0.00545488137486355,0.0484028925312815
1.16796875,-0.0430685497442178,0.00164303655869384,0.0446943485856879
1.1689453125,-0.0403399832386835,0.00650642477242761,0.04686832262276
1.169921875,-0.0376114167331492,0.00854379010520797,0.0461649780813544
1.1708984375,-0.0407679936709241,0.00775513255703493,0.0485307733569916
1.171875,-0.043871069304669,0.0072293608582529,0.0510883898711941
1.1728515625,-0.0410890014951046,0.0127499636954642,0.0539017680368168
1.173828125,-0.0411960041031648,0.00985821935216304,0.0510883898711941
1.1748046875,-0.0383069336855403,0.0131442924695507,0.0514720323483245
1.17578125,-0.0411960041031648,0.00788657548173043,0.0491062370726872
1.1767578125,-0.0411425027991347,0.00874095449225123,0.0498735220269479
1.177734375,-0.0409819988870445,0.00972677642746753,0.0507047473940637
1.1787109375,-0.0437105653925788,0.00782085401938268,0.0515359727611795
1.1796875,-0.0434965601764584,0.00584921014895007,0.0493619987241074
1.1806640625,-0.0432825549603381,0.00663786769712311,0.049937462439803
1.181640625,-0.0401794793265932,0.0072293608582529,0.0474437863384556
1.1826171875,-0.0371299049968784,0.00749224670764391,0.0446304081728329
1.18359375,-0.0370229023888182,0.00164303655869384,0.0386200093644571
1.1845703125,-0.0399119728064428,-0.00460050236434275,0.035359048308849
1.185546875,-0.0399119728064428,-0.00814946133112145,0.0317783851889655
1.1865234375,-0.040018975414503,-0.00611209599834109,0.0339523592260376
1.1875,-0.0430685497442178,-0.0100553837392063,0.0330571934460668
1.1884765625,-0.0403399832386835,-0.00230025118217138,0.0380445456487616
1.189453125,-0.0405539884548038,-0.00335179457973543,0.0372133202816458
1.1904296875,-0.0348828502276149,0.00164303655869384,0.0365739161530951
1.19140625,-0.0350968554437352,-0.00190592240808485,0.0331850742717769
1.1923828125,-0.0352573593558255,-0.00512627406312478,0.0301159344547339
1.193359375,-0.0382534323815102,-0.00512627406312478,0.0331850742717769
1.1943359375,-0.0441385758248194,-0.00768941109468717,0.0365099757402401
1.1953125,-0.0411960041031648,-0.00111726485991181,0.0400906388601235
1.1962890625,-0.0440315732167593,-0.00611209599834109,0.0379806052359065
1.197265625,-0.0409819988870445,-0.00210308679512812,0.0388757710158774
1.1982421875,-0.0408214949749542,-0.00387756627851746,0.0368936182173704
1.19921875,-0.0406074897588339,-0.00571776722425456,0.0348475250060085
1.2001953125,-0.0433360562643682,-0.0107125983626838,0.0326096105560813
1.201171875,-0.0431220510482478,-0.0159045938881564,0.0272386158762562
1.2021484375,-0.040072476718533,-0.0126185207707687,0.0274304371148214
1.203125,-0.0399654741104729,-0.0155759865764176,0.0243612972977784
1.2041015625,-0.0399119728064428,-0.0130128495448552,0.0268549733991258
1.205078125,-0.0399119728064428,-0.0137357856306805,0.0262155692705752
1.2060546875,-0.0429615471361576,-0.017613351909198,0.0253204034906043
1.20703125,-0.0401259780225631,-0.0187306167691098,0.0214200383064456
1.2080078125,-0.0403399832386835,-0.0257628132403194,0.0145144737180989
1.208984375,-0.0405004871507737,-0.026945799562579,0.0136193079381281
1.2099609375,-0.0377719206452394,-0.0249741556921464,0.0128520229838673
1.2109375,-0.0409284975830144,-0.0256313703156239,0.0152817586723597
1.2119140625,-0.0410890014951046,-0.0230682332840615,0.0179672560122723
1.212890625,-0.0411960041031648,-0.0201107674784126,0.0210363958293152
1.2138671875,-0.0383069336855403,-0.0168246943610249,0.0214839787193006
1.21484375,-0.0383069336855403,-0.0189935026185008,0.0192460642693735
1.2158203125,-0.0381999310774801,-0.0180076806832845,0.0202051704621994
1.216796875,-0.0380929284694199,-0.0168246943610249,0.0212282170678804
1.2177734375,-0.0379324245573297,-0.0155759865764176,0.0223152040864164
1.21875,-0.040660991062864,-0.0172847445974592,0.0233382506920974
1.2197265625,-0.0404469858467436,-0.0191906670055441,0.0212282170678804
1.220703125,-0.0431755523522779,-0.0214251967253677,0.0217397403707209
1.2216796875,-0.0430150484401877,-0.0210308679512812,0.0219955020221411
1.22265625,-0.0429080458321275,-0.0210308679512812,0.021867621196431
1.2236328125,-0.0428545445280974,-0.0243169410686688,0.0184787793151128
1.224609375,-0.0428545445280974,-0.0251055986168419,0.017711494360852
1.2255859375,-0.0429080458321275,-0.0291146078200548,0.0138111291766933
1.2265625,-0.0459576201618423,-0.0303633156046622,0.015601460736635
1.2275390625,-0.0461716253779626,-0.0316777448516172,0.0144505333052439
1.228515625,-0.0463321292900529,-0.0300347082929234,0.0163048052780407
1.2294921875,-0.0465461345061732,-0.0370011833017853,0.00959106192825921
1.23046875,-0.0438175680006389,-0.0319406307010083,0.0118929167910414
1.2314453125,-0.0469206436343838,-0.0382498910863926,0.00869589614828836
1.232421875,-0.047027646242444,-0.0352924252807437,0.0117010955524762
1.2333984375,-0.0441385758248194,-0.0348980965066572,0.00927135986398391
1.234375,-0.0441385758248194,-0.0399586491074342,0.00422006724843406
1.2353515625,-0.0411425027991347,-0.0388413842475224,0.00230185486278221
1.236328125,-0.0410355001910746,-0.0404186993438685,0.000575463715695553
1.2373046875,-0.0408214949749542,-0.0419302929778668,-0.00108698701853604
1.23828125,-0.0435500614804885,-0.0464650738798618,-0.00287731857847776
1.2392578125,-0.0433895575683983,-0.0423246217519533,0.00102304660568098
1.240234375,-0.0431755523522779,-0.0414702427414325,0.00172639114708666
1.2412109375,-0.0430150484401877,-0.0410101925049982,0.00204609321136197
1.2421875,-0.0429080458321275,-0.0409444710426505,0.0019821527985069
1.2431640625,-0.045797116249752,-0.041338799816737,0.00441188848699924
1.244140625,-0.0487396879714067,-0.045084923170559,0.00358066311988344
1.2451171875,-0.0487931892754368,-0.0433761651495174,0.00543493509268022
1.24609375,-0.0460111214658724,-0.0389071057098701,0.00709738582691182
1.2470703125,-0.0461716253779626,-0.0404186993438685,0.00575463715695553
1.248046875,-0.046385630594083,-0.044822037321168,0.00159851032137654
1.2490234375,-0.0465996358102033,-0.0431132793001264,0.00345278229417332
1.25,-0.0497027114439482,-0.0469908455786438,0.00268549733991258
1.2509765625,-0.0498632153560384,-0.0475823387397736,0.00230185486278221
1.251953125,-0.0499702179640986,-0.0505398045454225,-0.000575463715695553
1.2529296875,-0.0500237192681287,-0.050145475771336,-0.000127880825710123
1.25390625,-0.0500237192681287,-0.049356818223163,0.000639404128550614
1.2548828125,-0.0499167166600685,-0.0510655762442046,-0.00115092743139111
1.255859375,-0.0468671423303537,-0.0466622382669051,0.000191821238565184
1.2568359375,-0.049595708835888,-0.050934133319509,-0.00134274866995629
1.2578125,-0.0464391318981131,-0.046399352417514,6.39404128550614E-05
1.2587890625,-0.0433360562643682,-0.0450192017082112,-0.00172639114708666
1.259765625,-0.0401794793265932,-0.041075913967346,-0.000831225367115799
1.2607421875,-0.040018975414503,-0.0374612335382196,0.00255761651420246
1.26171875,-0.0399119728064428,-0.0344380462702229,0.00549887550553528
1.2626953125,-0.0398584715024127,-0.0347666535819617,0.00511523302840491
1.263671875,-0.0399119728064428,-0.0297718224435324,0.0101665256439548
1.2646484375,-0.0429080458321275,-0.0310205302281397,0.0118929167910414
1.265625,-0.0430685497442178,-0.026682913713188,0.0163687456908957
1.2666015625,-0.0432825549603381,-0.0254342059285806,0.0178393751865621
1.267578125,-0.0434965601764584,-0.0212280323383244,0.0222512636735614
1.2685546875,-0.0437105653925788,-0.0197821601666738,0.023913714407793
1.26953125,-0.0439245706086991,-0.0180734021456322,0.0258319267934448
1.2705078125,-0.0411425027991347,-0.00998966227685855,0.0311389810604149
1.271484375,-0.0383604349895704,-0.00440333797729949,0.0339523592260376
1.2724609375,-0.0354713645719458,-0.00118298632225956,0.034336001703168
1.2734375,-0.0354178632679157,0.00262885849391014,0.0380445456487616
1.2744140625,-0.0353108606598556,0.00387756627851746,0.0391954730801527
1.275390625,-0.0351503567477653,0.00545488137486355,0.040602162162964
1.2763671875,-0.034936351531645,0.0072293608582529,0.0422006724843406
1.27734375,-0.03177977459387,0.0148530504905923,0.0466765013841948
1.2783203125,-0.0285696963520649,0.0194535528549351,0.0480192500541511
1.279296875,-0.0283556911359446,0.0236597264451913,0.05204749606402
1.2802734375,-0.0281951872238544,0.0245141054557121,0.0527508406054257
1.28125,-0.0251456128941396,0.0307576443787487,0.0558839208353237
1.2822265625,-0.0250921115901095,0.0334522243350066,0.0585054777623812
1.283203125,-0.0280881846157942,0.0297061009811846,0.0577381928081205
1.2841796875,-0.0281951872238544,0.0283916717342296,0.0565872653767294
1.28515625,-0.0283556911359446,0.0238568908322346,0.0522393173025852
1.2861328125,-0.0315657693777497,0.0219509684241497,0.0535181255596864
1.287109375,-0.0318332758979001,0.0230025118217138,0.0547969338167877
1.2880859375,-0.0291582106963959,0.0270772424872745,0.0562675633124541
1.2890625,-0.0323682889382009,0.0256313703156239,0.0579939544595407
1.2900390625,-0.0296397224326666,0.0275372927237088,0.0571627290924249
1.291015625,-0.0297467250407268,0.0241854981439733,0.0539017680368168
1.2919921875,-0.0298002263447569,0.0184677309197188,0.0482750117055714
1.29296875,-0.0268041533190722,0.0192563884678918,0.0460370972556442
1.2939453125,-0.0295862211286365,0.0146558861035491,0.0442467656957025
1.294921875,-0.0293722159125162,0.0193221099302396,0.0486586541827018
1.2958984375,-0.0319937798099903,0.0212937538006722,0.0532623639082662
1.296875,-0.0317262732898399,0.0262228634767537,0.0579300140466857
1.2978515625,-0.0284626937440048,0.0310862516904875,0.0595285243680622
1.298828125,-0.0223100437805451,0.0356210325924825,0.0579939544595407
1.2998046875,-0.0162643964251456,0.045610694869341,0.0618303792308444
1.30078125,-0.0131613207914007,0.0520513981794209,0.0652192211121627
1.3017578125,-0.00727617734809145,0.0607923526716721,0.0680325992777854
1.302734375,-0.00732967865212153,0.0630268823914957,0.0703344541405676
1.3037109375,-0.00749018256421178,0.0617781746068884,0.0692474671220315
1.3046875,-0.00481511736270758,0.060003695123499,0.0648355786350323
1.3056640625,0.000749018256421178,0.0609237955963676,0.0601679284966128
1.306640625,0.0033705821538953,0.0557975215332428,0.0524311385411504
1.3076171875,0.00299607302568471,0.0508026903948135,0.0477634884027309
1.30859375,0.00561763692315884,0.0489624894490764,0.0433515999157317
1.3095703125,0.00829270212466305,0.0446248729341247,0.03638209491453
1.310546875,0.0110212686301973,0.0438362153859517,0.0328014317946465
1.3115234375,0.0139103390478219,0.0437704939236039,0.0298601728033137
1.3125,0.0168529107694765,0.0442962656223859,0.0274304371148214
1.3134765625,0.0141243442639422,0.0425875076013443,0.0285174241333574
1.314453125,0.011449279062438,0.0472537314280348,0.0358705716116895
1.3154296875,0.00882771516496389,0.0465307953422096,0.0376609031716312
1.31640625,0.00625965257151985,0.0488310465243809,0.0425843149614709
1.3173828125,0.00369158997807581,0.0452820875576022,0.0415612683557899
1.318359375,0.0040660991062864,0.0444277085470814,0.0403464005115438
1.3193359375,0.0043871069304669,0.0431132793001264,0.0387478901901672
1.3203125,0.00454761084255715,0.0411416354296938,0.0365739161530951
1.3212890625,0.00171204172896269,0.0385127769357836,0.0368296778045154
1.322265625,-0.00123052999269194,0.0381184481616971,0.0393233539058628
1.3232421875,-0.00139103390478219,0.0339779960337886,0.035359048308849
1.32421875,-0.00454761084255715,0.032269238012747,0.0367657373916603
1.3251953125,-0.00492211997076774,0.0329264526362246,0.0378527244101964
1.326171875,-0.0023540573773237,0.0363439686783077,0.0386839497773122
1.3271484375,-0.00861370994884355,0.0337808316467454,0.0424564341357608
1.328125,-0.00898821907705414,0.0373955120758718,0.0464207397327746
1.3291015625,-0.0122517986228893,0.0355553111301347,0.047827428815586
1.330078125,-0.00957673342138507,0.0431132793001264,0.0526869001925706
1.3310546875,-0.00968373602944524,0.0425875076013443,0.0523032577154403
1.33203125,-0.00968373602944524,0.0429161149130831,0.0525590193668605
1.3330078125,-0.0124658038390096,0.0381184481616971,0.0505768665683536
1.333984375,-0.00930922690123465,0.0398929276450864,0.0491701774855422
1.3349609375,-0.0148198612163333,0.0304290370670099,0.0452698123013835
1.3359375,-0.0173344225057473,0.0301004297552712,0.0474437863384556
1.3369140625,-0.0198489837951612,0.0239883337569301,0.0437991828057171
1.337890625,-0.0194209733629206,0.0206365391771946,0.0400266984472685
1.3388671875,-0.0131613207914007,0.0197821601666738,0.0329932530332117
1.33984375,-0.0128938142712503,0.0153788221893743,0.0283256028947922
1.3408203125,-0.0156758820808147,0.0102525481262496,0.0259598076191549
1.341796875,-0.0156758820808147,0.00716363939590514,0.0228267273892569
1.3427734375,-0.0157828846888748,0.000328607311738768,0.0161769244523305
1.34375,-0.0189929629306799,-0.0072293608582529,0.0117650359653313
1.3447265625,-0.0251991141981696,-0.0183362879950233,0.00684162417549157
1.345703125,-0.0285696963520649,-0.026945799562579,0.00159851032137654
1.3466796875,-0.0289977067843056,-0.0327292882491813,-0.00370854394559356
1.34765625,-0.032421790242231,-0.0383156125487404,-0.00594645839552071
1.3486328125,-0.0357388710920962,-0.0494882611478585,-0.0137471887638382
1.349609375,-0.0418915210555559,-0.0599379736611513,-0.0180311964251273
1.3505859375,-0.0450480979933309,-0.0667730057453177,-0.0217397403707209
1.3515625,-0.0509332414366401,-0.0814288918488667,-0.0304995769318643
1.3525390625,-0.05082623882858,-0.0835319786439948,-0.0326735509689364
1.353515625,-0.0535548053341143,-0.0877381522342511,-0.0342081208774579
1.3544921875,-0.0561228679275583,-0.091221389738682,-0.0351032866574287
1.35546875,-0.0585839279129422,-0.0884610883200764,-0.0298601728033137
1.3564453125,-0.061044987898326,-0.0912871112010298,-0.0302438152804441
1.357421875,-0.0605099748580252,-0.0912871112010298,-0.0307553385832846
1.3583984375,-0.0600819644257845,-0.0916157185127685,-0.0315226235375453
1.359375,-0.0567648835759193,-0.086686608836687,-0.0299241132161688
1.3603515625,-0.0564973770557689,-0.0855036225144274,-0.0289650070233428
1.361328125,-0.0563903744477087,-0.0851750152026887,-0.0287731857847776
1.3623046875,-0.0535548053341143,-0.0800487411395639,-0.0264713309219954
1.36328125,-0.0566578809678591,-0.0845178005792111,-0.0278140795919517
1.3642578125,-0.0570323900960697,-0.0809688416124324,-0.023977654820648
1.365234375,-0.060402972249965,-0.0809688416124324,-0.0205248725264747
1.3662109375,-0.0609379852902659,-0.0782742616561745,-0.0173278518837217
1.3671875,-0.0615264996345968,-0.0814946133112145,-0.0199494088107792
1.3681640625,-0.059118940953243,-0.0814288918488667,-0.0223152040864164
1.369140625,-0.0566043796638291,-0.0837291430310381,-0.027110735050546
1.3701171875,-0.0510937453487304,-0.0793258050537386,-0.0282616624819372
1.37109375,-0.0512542492608206,-0.0799172982148684,-0.0286453049590675
1.3720703125,-0.0512542492608206,-0.0823489923217353,-0.0311389810604149
1.373046875,-0.0510402440447003,-0.0838605859557336,-0.0328014317946465
1.3740234375,-0.0507192362205198,-0.0815603347735622,-0.0308832194089947
1.375,-0.0531802962059037,-0.0874095449225123,-0.0342720612903129
1.3759765625,-0.0525917818615727,-0.0870152161484258,-0.0343999421160231
1.376953125,-0.057834909656521,-0.0924043760609416,-0.0345917633545882
1.3779296875,-0.0631315387554993,-0.0950989560171995,-0.0319702064275307
1.37890625,-0.0655390974368531,-0.0983193076722394,-0.0328014317946465
1.3798828125,-0.0651645883086425,-0.0994365725321512,-0.0342720612903129
1.380859375,-0.0620080113708676,-0.0985821935216304,-0.0365739161530951
1.3818359375,-0.0590654396492129,-0.0958876135653725,-0.0368296778045154
1.3828125,-0.0621150139789277,-0.0972020428123276,-0.0350393462445737
1.3837890625,-0.0624895231071383,-0.0993708510698035,-0.0368936182173704
1.384765625,-0.0600284631217544,-0.0994365725321512,-0.0393872943187178
1.3857421875,-0.0664486196053645,-0.108703298723184,-0.0422646128971956
1.38671875,-0.0641480635320709,-0.106468769003361,-0.0422646128971956
1.3876953125,-0.0647900791804319,-0.112843750851093,-0.0480192500541511
1.388671875,-0.0624360218031082,-0.109886285045444,-0.0474437863384556
1.3896484375,-0.0628640322353489,-0.114946837646221,-0.0521114364768751
1.390625,-0.066074110477154,-0.11908728977413,-0.0530066022568459
1.3916015625,-0.0632385413635595,-0.119153011236477,-0.0558839208353237
1.392578125,-0.0631315387554993,-0.118035746376565,-0.0549248146424978
1.3935546875,-0.0628105309313188,-0.115998381043785,-0.0531344830825561
1.39453125,-0.0652715909167027,-0.115932659581437,-0.0507047473940637
1.3955078125,-0.0676256482940264,-0.112449422077006,-0.0448222294113981
1.396484375,-0.0698727030632899,-0.108637577260837,-0.0387478901901672
1.3974609375,-0.0691771861108988,-0.0990422437580647,-0.0298601728033137
1.3984375,-0.0715312434882225,-0.0987136364463259,-0.0272386158762562
1.3994140625,-0.0681071600302971,-0.0903670107281612,-0.0222512636735614
1.400390625,-0.0677861522061166,-0.0888554170941629,-0.0211003362421703
1.4013671875,-0.0676256482940264,-0.0914185541257253,-0.0237858335820829
1.40234375,-0.0676791495980565,-0.0922072116738983,-0.0245531185363436
1.4033203125,-0.0679466561182069,-0.0970705998876321,-0.029156828261908
1.404296875,-0.0684281678544777,-0.102919810036582,-0.0345278229417332
1.4052734375,-0.0690166821988086,-0.106534490465709,-0.0375330223459211
1.40625,-0.0726012695688242,-0.11350096547457,-0.0408579238143843
1.4072265625,-0.0732967865212153,-0.120401719021085,-0.0470601438613252
1.408203125,-0.0710497317519518,-0.126908143793512,-0.0558839208353237
1.4091796875,-0.0715847447922526,-0.132757353942462,-0.0611909751022938
1.41015625,-0.0720127552244933,-0.137620742156196,-0.065602863589293
1.4111328125,-0.0722267604406136,-0.138343678242021,-0.0661143868921335
1.412109375,-0.0751158308582382,-0.14070965088654,-0.065602863589293
1.4130859375,-0.0749018256421178,-0.138935171403151,-0.0640682936807716
1.4140625,-0.0774163869315318,-0.139000892865499,-0.0616385579922792
1.4150390625,-0.0738853008655462,-0.135320490974025,-0.061446736753714
1.416015625,-0.0731897839131551,-0.134071783189417,-0.0608712730380185
1.4169921875,-0.072440765656734,-0.132757353942462,-0.0602958093223229
1.41796875,-0.0717452487043429,-0.128748344739249,-0.0569709078538597
1.4189453125,-0.0711032330559819,-0.131245760308464,-0.0601679284966128
1.419921875,-0.0706752226237412,-0.131837253469594,-0.0611909751022938
1.4208984375,-0.0674651443819361,-0.130719988609682,-0.0633010087265108
1.421875,-0.0703007134955306,-0.139789550413672,-0.0694392883605967
1.4228515625,-0.0734572904333056,-0.144258609853319,-0.0708459774434081
1.423828125,-0.0796634417007953,-0.149976377077574,-0.0702705137277125
1.4248046875,-0.0802519560451263,-0.153722500431396,-0.0734675343704656
1.42578125,-0.0809474729975173,-0.161017582751996,-0.0800533968945369
1.4267578125,-0.078807420836314,-0.165618085116339,-0.0867671402443184
1.427734375,-0.0795564390927352,-0.170021423093639,-0.0904117437770569
1.4287109375,-0.0831945277667809,-0.179616756596411,-0.0964221425854326
1.4296875,-0.0837295408070817,-0.188291989626314,-0.104542575018025
1.4306640625,-0.0841040499352923,-0.189803583260312,-0.105693502449417
1.431640625,-0.0812684808216979,-0.192892491990657,-0.111576020432082
1.4326171875,-0.0811614782136377,-0.197427272892652,-0.116243670570502
1.43359375,-0.0837295408070817,-0.206431113234294,-0.122701652268863
1.4345703125,-0.0831410264627508,-0.211491665835071,-0.128328408600108
1.435546875,-0.0795029377887051,-0.212806095082026,-0.133315760802803
1.4365234375,-0.0757578465065992,-0.213791917017242,-0.138047351354078
1.4375,-0.0720127552244933,-0.206036784460208,-0.134083045757064
1.4384765625,-0.0653785935247629,-0.193023934915352,-0.127689004471558
1.439453125,-0.055962364015468,-0.172190231351114,-0.116243670570502
1.4404296875,-0.0467601397222936,-0.149647769765835,-0.102944064696649
1.44140625,-0.0348293489235848,-0.131508646157855,-0.096741844649708
1.4423828125,-0.0261086363666811,-0.120796047795171,-0.094695751438346
1.443359375,-0.0176019290258977,-0.117378531753088,-0.0998109844667509
1.4443359375,-0.00936272820526473,-0.115209723495612,-0.105885323687982
1.4453125,-0.00422660301837665,-0.119875947322303,-0.115668206854806
1.4462890625,0.00668766300376052,-0.113303801087527,-0.119952214516095
1.447265625,0.0204374981394922,-0.0950332345548517,-0.115476385616241
1.4482421875,0.0371834063009085,-0.0734108734424408,-0.110552973826401
1.44921875,0.0569788887920396,-0.0450192017082112,-0.101984958503823
1.4501953125,0.0828200186385703,-0.00952961204042427,-0.0923299561627087
1.451171875,0.108875153701221,0.0304947585293577,-0.0783909461603053
1.4521484375,0.138140367005677,0.0837948644933858,-0.0543493509268022
1.453125,0.167726588134314,0.153459614582005,-0.0143226524795338
1.4541015625,0.194637744061446,0.236202935677826,0.0415612683557899
1.455078125,0.218820333483044,0.328935919050507,0.110105390936416
1.4560546875,0.240220855095078,0.425217861389966,0.185043554802548
1.45703125,0.264617449732796,0.530569365533415,0.265992117477056
1.4580078125,0.283128900927205,0.635526540902777,0.352439555657099
1.458984375,0.301479848209524,0.745544268872917,0.444066167278402
1.4599609375,0.325501933719032,0.866011709356349,0.540488309863834
1.4609375,0.352252585734074,0.987793579086737,0.635567703779311
1.4619140625,0.384513872064215,1.11069271367704,0.726171268794933
1.462890625,0.413565080152551,1.23470911312725,0.821186722297554
1.4638671875,0.436463638277427,1.34538405572086,0.908976909147553
1.46484375,0.459094689882152,1.45763631341083,0.998493487144639
1.4658203125,0.478676167157163,1.56601100482227,1.08730672060032
1.466796875,0.483544785823901,1.66814215731068,1.18456008855287
1.4677734375,0.470811475464741,1.76455554257484,1.29377031370931
1.46875,0.449410953852707,1.85295090943257,1.40355600258145
1.4697265625,0.422339294013484,1.9074997231812,1.48514396938451
1.470703125,0.398424211112037,1.91091723922328,1.51244652567362
1.4716796875,0.377772707756424,1.85755141179691,1.47983691511754
1.47265625,0.357388710920962,1.77691117749621,1.41954110579522
1.4736328125,0.328498006744717,1.67754032642641,1.34907877082894
1.474609375,0.296985738670997,1.5621991600061,1.2651889491631
1.4755859375,0.262691402787713,1.43614539522311,1.17343445671609
1.4765625,0.22861107212055,1.2931354931544,1.06454393362392
1.4775390625,0.194530741453386,1.15012559108569,0.955653410531748
1.478515625,0.154511766038883,1.0006749857069,0.846187423723883
1.4794921875,0.108500644573011,0.844257905319243,0.735762330723192
1.48046875,0.0623290191950481,0.677522555342992,0.615234652491401
1.4814453125,0.0157828846888748,0.506055260077703,0.490231145359756
1.482421875,-0.0251456128941396,0.35897062734343,0.384154000433209
1.4833984375,-0.0576744057444307,0.256905196317369,0.314586831246902
1.484375,-0.0816964912539385,0.197164387043261,0.278844140460923
1.4853515625,-0.0971583681186329,0.168378386534945,0.26554453458707
1.486328125,-0.109891678477793,0.147676125895402,0.257551982980187
1.4873046875,-0.119789419723358,0.126842422331164,0.246618172381972
1.48828125,-0.129633659664894,0.106403047541013,0.236004063848032
1.4892578125,-0.136428325276715,0.0839263074180814,0.220402603111397
1.490234375,-0.14011991525479,0.0658529052724491,0.205952069806153
1.4912109375,-0.143543998712716,0.0464650738798618,0.190030907005243
1.4921875,-0.143704502624806,0.0347666535819617,0.178457692278476
1.4931640625,-0.149375640851995,0.0219509684241497,0.171360306451565
1.494140625,-0.151836700837379,0.0165618085116339,0.168419047460232
1.4951171875,-0.156972826024267,0.0124213563837254,0.169378153653058
1.49609375,-0.15895237427338,0.0119613061472912,0.170912723561579
1.4970703125,-0.160824919914433,0.0147216075658968,0.175580373699999
1.498046875,-0.162750966859516,0.0114355344485091,0.174109744204332
1.4990234375,-0.161787943386975,0.00729508232060065,0.169058451588782
1.5,-0.155153781687244,0.00492910967608152,0.160106793789074
1.5009765625,-0.151676196925289,-0.00473194528903826,0.146935068740931
1.501953125,-0.148519619987514,-0.0160360368128519,0.132484535435687
1.5029296875,-0.148626622595574,-0.032006352163356,0.116627313047632
1.50390625,-0.14605856000213,-0.0406158637309117,0.105437740797996
1.5048828125,-0.140868933511212,-0.0475823387397736,0.0932890623555346
1.505859375,-0.138782382654038,-0.0582949371024574,0.0805009797845223
1.5068359375,-0.133860262683271,-0.0664443984335789,0.0674571355620898
1.5078125,-0.129045145320563,-0.0744624168400048,0.0546051125782225
1.5087890625,-0.124123025349795,-0.0906956180399,0.0334408359231971
1.509765625,-0.113208759327658,-0.100028065693281,0.0131717250481427
1.5107421875,-0.104969558507025,-0.108111805562055,-0.00313308022989801
1.51171875,-0.0994054228878964,-0.111792207453529,-0.0123404996810269
1.5126953125,-0.0935737807486172,-0.110937828443008,-0.0173917922965767
1.513671875,-0.0844785590635029,-0.102854088574234,-0.0183508984894026
1.5146484375,-0.0810009743015474,-0.0994365725321512,-0.0184148389022577
1.515625,-0.0802519560451263,-0.0980564218228484,-0.0178393751865621
1.5166015625,-0.0763998621549602,-0.0933244765338101,-0.0168802689937362
1.517578125,-0.0725477682647941,-0.0827433210958218,-0.0101665256439548
1.5185546875,-0.0715847447922526,-0.0754482387752211,-0.00390036518415875
1.51953125,-0.0678931548141768,-0.063224046778539,0.00466765013841949
1.5205078125,-0.0701937108874704,-0.0667730057453177,0.00345278229417332
1.521484375,-0.0698727030632899,-0.0686789281534025,0.00115092743139111
1.5224609375,-0.0668766300376052,-0.069073256927489,-0.00223791444992715
1.5234375,-0.0641480635320709,-0.0679559920675772,-0.00377248435844862
1.5244140625,-0.0646295752683417,-0.0708477364108784,-0.00626616045979602
1.525390625,-0.0623825204990781,-0.0717021154213992,-0.00933530027683897
1.5263671875,-0.0602424683378748,-0.073082266130702,-0.0128520229838673
1.52734375,-0.0582094187847316,-0.0774856041080015,-0.0192460642693735
1.5283203125,-0.0620080113708676,-0.0845178005792111,-0.0224430849121266
1.529296875,-0.0628105309313188,-0.0937845267702444,-0.0309471598218497
1.5302734375,-0.0633990452756497,-0.0991079652204124,-0.0356787503731243
1.53125,-0.0637735544038603,-0.10620588315397,-0.0423924937229057
1.5322265625,-0.0639340583159506,-0.109031906034923,-0.0451419314756734
1.533203125,-0.0696586978471696,-0.116524152742567,-0.04686832262276
1.5341796875,-0.0663416169973044,-0.1140924586357,-0.0477634884027309
1.53515625,-0.0628105309313188,-0.107783198250316,-0.0450140506499633
1.5361328125,-0.0649505830925222,-0.109820563583096,-0.0448222294113981
1.537109375,-0.0641480635320709,-0.105745832917536,-0.041625208768645
1.5380859375,-0.0632920426675896,-0.0989765222957169,-0.0356787503731243
1.5390625,-0.0596004526895138,-0.0956904491783292,-0.0360623928502547
1.5400390625,-0.0560693666235282,-0.0931930336091146,-0.0370854394559356
1.541015625,-0.052752285773663,-0.091747161437464,-0.0390675922544425
1.5419921875,-0.0525382805575427,-0.0915499970504208,-0.0390036518415875
1.54296875,-0.0525917818615727,-0.0895126317176404,-0.0368936182173704
1.5439453125,-0.0558553614074079,-0.0885925312447719,-0.0327374913817915
1.544921875,-0.0505052310043995,-0.0855693439767752,-0.0351032866574287
1.5458984375,-0.0482581762351359,-0.0890525814812061,-0.0407939834015292
1.546875,-0.0460646227699025,-0.0927329833726803,-0.0466765013841948
1.5478515625,-0.0439245706086991,-0.0993051296074557,-0.0553723975324832
1.548828125,-0.0476161605867749,-0.105417225605797,-0.0578021332209755
1.5498046875,-0.0511472466527605,-0.11087210698066,-0.0596564051937723
1.55078125,-0.0516287583890312,-0.109491956271358,-0.0578660736338306
1.5517578125,-0.0518427636051516,-0.11001772797014,-0.0581857756981059
1.552734375,-0.0518427636051516,-0.10942623480901,-0.0576103119824104
1.5537109375,-0.045797116249752,-0.101999709563714,-0.0562675633124541
1.5546875,-0.0453156045134813,-0.0995680154568467,-0.0542854105139472
1.5556640625,-0.0447270901691504,-0.0906956180399,-0.0459731568427892
1.556640625,-0.0440315732167593,-0.0873438234601645,-0.0432876595028766
1.5576171875,-0.0403934845427136,-0.0810345630747802,-0.0406661025758191
1.55859375,-0.0396444662862924,-0.0809031201500847,-0.0412415662915146
1.5595703125,-0.0361133802203068,-0.0754482387752211,-0.0393872943187178
1.560546875,-0.0385209389016606,-0.0766969465598285,-0.0381084860616166
1.5615234375,-0.0411960041031648,-0.0759082890116554,-0.0347196441802984
1.5625,-0.0440315732167593,-0.0761711748610464,-0.0320980872532408
1.5634765625,-0.0441920771288495,-0.0743966953776571,-0.0302438152804441
1.564453125,-0.0416240145354055,-0.0764340607104374,-0.0348475250060085
1.5654296875,-0.0392164558540517,-0.0791286406666953,-0.0398988176215583
1.56640625,-0.0398584715024127,-0.0851092937403409,-0.0452058718885284
1.5673828125,-0.0376114167331492,-0.0881982024706853,-0.0505768665683536
1.568359375,-0.0383069336855403,-0.0911556682763342,-0.0528147810182807
1.5693359375,-0.0389489493339013,-0.0936530838455489,-0.0546690529910775
1.5703125,-0.0423730327918267,-0.0983193076722394,-0.0559478612481788
1.5712890625,-0.0426940406160072,-0.0993051296074557,-0.0565872653767294
1.572265625,-0.0428545445280974,-0.0993051296074557,-0.0565233249638743
1.5732421875,-0.0398049701983826,-0.0955590062536337,-0.0556920995967585
1.57421875,-0.0395374636782322,-0.090958503889291,-0.0514080919354694
1.5751953125,-0.0361668815243369,-0.0857007869014707,-0.0495538199626726
1.576171875,-0.035578367180006,-0.0830062069452128,-0.0474437863384556
1.5771484375,-0.0348828502276149,-0.0771569967962627,-0.0422646128971956
1.578125,-0.0342408345792539,-0.0714392295720082,-0.0372133202816458
1.5791015625,-0.0306562472092382,-0.0631583253161912,-0.0324817297303712
1.580078125,-0.0301747354729675,-0.0613181243704541,-0.0311389810604149
1.5810546875,-0.0268576546231023,-0.0543516493615922,-0.0274943775276764
1.58203125,-0.0296397224326666,-0.0569805078555024,-0.0273664967019663
1.5830078125,-0.0296397224326666,-0.0516570694053343,-0.0220594424349962
1.583984375,-0.0269111559271323,-0.0471222885033393,-0.0202051704621994
1.5849609375,-0.0302817380810276,-0.0462021880304708,-0.0159211628009103
1.5859375,-0.0308167511213285,-0.0456764163316888,-0.0148981161952293
1.5869140625,-0.0314052654656594,-0.0483709962879467,-0.0169442094065913
1.587890625,-0.0320472811140204,-0.050934133319509,-0.0189263622050982
1.5888671875,-0.0326892967623814,-0.050408361620727,-0.017711494360852
1.58984375,-0.0332243098026823,-0.055206028372113,-0.0219955020221411
1.5908203125,-0.0306562472092382,-0.0535629918134192,-0.0228267273892569
1.591796875,-0.0250386102860794,-0.0511312977065523,-0.0260876884448651
1.5927734375,-0.0221495398684548,-0.0508684118571613,-0.0287092453719226
1.59375,-0.0219890359563646,-0.0527743342652461,-0.0307553385832846
1.5947265625,-0.021614526828154,-0.0481738319009034,-0.0265352713348505
1.595703125,-0.0270181585351925,-0.0548116995980265,-0.0278140795919517
1.5966796875,-0.0264296441908616,-0.0524457269535074,-0.02602374803201
1.59765625,-0.0257876285425006,-0.0499483113842927,-0.0241694760592132
1.5986328125,-0.0251991141981696,-0.0477137816644691,-0.0225070253249816
1.599609375,-0.0217215294362142,-0.0428503934507353,-0.0211642766550253
1.6005859375,-0.0212935190039735,-0.0415359642037803,-0.0202051704621994
1.6015625,-0.0210795137878532,-0.0437704939236039,-0.0226988465635468
1.6025390625,-0.0180299394581384,-0.040813028117955,-0.0227627869764019
1.603515625,-0.0181369420661985,-0.0444934300094292,-0.0263434500962853
1.6044921875,-0.018457949890379,-0.0458078592563843,-0.0273664967019663
1.60546875,-0.0188859603226197,-0.0446905943964724,-0.0258319267934448
1.6064453125,-0.0164784016412659,-0.0410101925049982,-0.0244891781234885
1.607421875,-0.0112352738463177,-0.0373955120758718,-0.0261516288577201
1.6083984375,-0.00888121646899397,-0.0337151101843976,-0.0248088801877638
1.609375,-0.00941622950929481,-0.0356210325924825,-0.0261516288577201
1.6103515625,-0.00690166821988086,-0.0282602288095341,-0.0212921574807355
1.611328125,-0.00722267604406136,-0.0203079318654559,-0.0131077846352876
1.6123046875,-0.00732967865212153,-0.0146558861035491,-0.007289207065477
1.61328125,-0.00727617734809145,-0.00834662571816471,-0.00108698701853604
1.6142578125,-0.00411960041031648,-0.00144587217165058,0.00268549733991258
1.615234375,-0.00369158997807581,0.00308890873034442,0.00677768376263651
1.6162109375,-0.00909522168511431,-0.00092010047286855,0.00818437284544786
1.6171875,-0.00850670734078338,0.00111726485991181,0.00965500234111428
1.6181640625,-0.00797169430048254,0.00315463019269217,0.0111256318367807
1.619140625,-0.00449410953852707,0.00795229694407819,0.0124044400938819
1.6201171875,-0.0040660991062864,0.00939816911572877,0.0134274866995629
1.62109375,-0.000856020864481347,0.0103182695885973,0.0111895722496358
1.6220703125,0.00224705476926354,0.013604342705985,0.0113813934882009
1.623046875,0.00513612518688808,0.0162989226622429,0.0111895722496358
1.6240234375,0.00497562127479783,0.0184677309197188,0.013491427112418
1.625,0.00465461345061732,0.0230682332840615,0.0184148389022577
1.6259765625,0.00128403129672202,0.0185334523820665,0.0171999710580115
1.626953125,0.00374509128210589,0.0225424615852795,0.0187984813793881
1.6279296875,0.0060991486594296,0.0207022606395424,0.014578414130954
1.62890625,0.011449279062438,0.0248427127674509,0.0133635462867078
1.6298828125,0.0110212686301973,0.0263543064014492,0.0152817586723597
1.630859375,0.0136428325276715,0.0311519731528352,0.0175196731222868
1.6318359375,0.0134288273115511,0.0335836672597021,0.0201412300493444
1.6328125,0.0163713990332058,0.0394985988709999,0.0231464294535322
1.6337890625,0.0194209733629206,0.045873580718732,0.0264713309219954
1.634765625,0.0255201220223502,0.0527743342652461,0.0272386158762562
1.6357421875,0.0258946311505607,0.060003695123499,0.0340802400517477
1.63671875,0.0263761428868315,0.0674302203687952,0.0410497450529494
1.6376953125,0.0239150829014476,0.0720307227331379,0.0481471308798613
1.638671875,0.027339166359373,0.0795229694407819,0.0521753768897301
1.6396484375,0.0277671767916137,0.0779456543444358,0.0501932240912232
1.640625,0.0339733280591035,0.0878038736965988,0.0538378276239617
1.6416015625,0.0341873332752238,0.0883953668577286,0.0542214701010921
1.642578125,0.0342408345792539,0.091484275588073,0.05722666950528
1.6435546875,0.0341873332752238,0.0940474126196354,0.0599121668451926
1.64453125,0.0339733280591035,0.0962162208771113,0.0622779621208298
1.6455078125,0.0336523202349229,0.0980564218228484,0.0643879957450469
1.646484375,0.0391094532459915,0.102525481262496,0.0634288895522209
1.6474609375,0.0415705132313754,0.103971353434146,0.06240584294654
1.6484375,0.0440315732167593,0.105417225605797,0.061382796340859
1.6494140625,0.0465461345061732,0.106994540702143,0.0604876305608881
1.650390625,0.0549993405429265,0.117707139064827,0.0626616045979602
1.6513671875,0.0576744057444307,0.122833413127951,0.0651552806993076
1.65234375,0.0576209044404007,0.128419737427511,0.0708459774434081
1.6533203125,0.0517892623011215,0.128616901814554,0.0768563762517839
1.654296875,0.0490071944915571,0.129208394975684,0.080181277720247
1.6552734375,0.0492747010117075,0.130062773986204,0.0808206818487977
1.65625,0.0555343535832274,0.137094970457414,0.0815879668030584
1.6572265625,0.0646830765723718,0.147216075658968,0.0824831325830293
1.658203125,0.0680536587262671,0.154379715054873,0.0863195573543329
1.6591796875,0.0713707395761323,0.161477632988431,0.0900920417127816
1.66015625,0.0688026769826882,0.162529176385995,0.0937366452455201
1.6611328125,0.0690166821988086,0.16910132262077,0.100066746118171
1.662109375,0.0662346143892442,0.169495651394857,0.103263766760924
1.6630859375,0.0691771861108988,0.175344861543807,0.106141085339402
1.6640625,0.0690166821988086,0.18079974291867,0.111767841670647
1.6650390625,0.0717452487043429,0.183034272638494,0.111320258780662
1.666015625,0.0773093843234716,0.190855126657876,0.113558173230589
1.6669921875,0.076934875195261,0.192695327603614,0.115796087680516
1.66796875,0.0765068647630204,0.194469807087003,0.117906121304733
1.6689453125,0.0761858569388399,0.196244286570392,0.120080095341805
1.669921875,0.0670371339496955,0.189409254486226,0.122381950204588
1.6708984375,0.0668231287335751,0.194535528549351,0.127752944884413
1.671875,0.0666626248214849,0.196967222656218,0.13037450181147
1.6728515625,0.0753833373783886,0.205642455686121,0.13024662098576
1.673828125,0.0784329117081034,0.211688830222114,0.133315760802803
1.6748046875,0.0785934156201937,0.218063812069846,0.139454040436889
1.67578125,0.0759183504186894,0.221744213961321,0.145848081722395
1.6767578125,0.0791819299645246,0.225621780239838,0.146423545438091
1.677734375,0.0795564390927352,0.226607602175054,0.147062949566641
1.6787109375,0.0798774469169157,0.227659145572619,0.147766294108047
1.6796875,0.0801984547410962,0.231536711851136,0.151283016815075
1.6806640625,0.0863511047045558,0.24106632389156,0.154735799109249
1.681640625,0.0865116086166461,0.241526374127995,0.155055501173524
1.6826171875,0.0865651099206762,0.244746725783034,0.158188581403422
1.68359375,0.0835690368949915,0.238831794171737,0.155247322412089
1.6845703125,0.0834620342869313,0.241394931203299,0.157996760164857
1.685546875,0.083248029070811,0.240869159504517,0.157613117687726
1.6865234375,0.0829270212466305,0.243037967761993,0.160106793789074
1.6875,0.0855485851441046,0.242183588751472,0.156654011494901
1.6884765625,0.0822850055982695,0.241263488278603,0.159019806770538
1.689453125,0.0760788543307797,0.237517364924782,0.161385602046175
1.6904296875,0.0699797056713501,0.233836963033307,0.163879278147522
1.69140625,0.0697657004552298,0.236202935677826,0.166436894661725
1.6923828125,0.0755438412904789,0.238831794171737,0.163239874018972
1.693359375,0.0814289847337881,0.244615282858339,0.163175933606117
1.6943359375,0.0785934156201937,0.241854981439733,0.163239874018972
1.6953125,0.0758648491146594,0.24224931021382,0.16637295424887
1.6962890625,0.0702472121915005,0.236925871763652,0.166692656313145
1.697265625,0.0676256482940264,0.234757063506176,0.167076298790276
1.6982421875,0.0650575857005823,0.229630789443051,0.164582622688928
1.69921875,0.0624360218031082,0.227461981185575,0.165030205578914
1.7001953125,0.0627035283232587,0.225227451465752,0.162536529477566
1.701171875,0.0628640322353489,0.222861478821232,0.159978912963364
1.7021484375,0.0600819644257845,0.217406597446369,0.157293415623451
1.703125,0.0571393927041299,0.208797085878813,0.151602718879351
1.7041015625,0.0541433196784452,0.197032944118565,0.142842882318207
